bvp,time
-169.51,1769236104.390625
-168.85,1769236104.40625
-152.02,1769236104.421875
-119.71,1769236104.4375
-76.41,1769236104.453125
-29.11,1769236104.46875
15.04,1769236104.484375
50.92,1769236104.5
76.6,1769236104.515625
93.14,1769236104.53125
103.09,1769236104.546875
108.96,1769236104.5625
112.09,1769236104.578125
112.61,1769236104.59375
110.1,1769236104.609375
104.37,1769236104.625
96.04,1769236104.640625
86.4,1769236104.65625
77.02,1769236104.671875
69.15,1769236104.6875
63.39,1769236104.703125
59.67,1769236104.71875
57.46,1769236104.734375
56.18,1769236104.75
55.4,1769236104.765625
54.9,1769236104.78125
54.53,1769236104.796875
53.97,1769236104.8125
52.6,1769236104.828125
49.52,1769236104.84375
43.84,1769236104.859375
35.03,1769236104.875
23.15,1769236104.890625
8.99,1769236104.90625
-6.18,1769236104.921875
-20.93,1769236104.9375
-34.09,1769236104.953125
-45.01,1769236104.96875
-53.72,1769236104.984375
-60.78,1769236105.0
-67.11,1769236105.015625
-73.78,1769236105.03125
-81.75,1769236105.046875
-91.61,1769236105.0625
-103.18,1769236105.078125
-115.15,1769236105.09375
-124.99,1769236105.109375
-129.37,1769236105.125
-125.28,1769236105.140625
-111.25,1769236105.15625
-88.25,1769236105.171875
-59.69,1769236105.1875
-30.35,1769236105.203125
-4.73,1769236105.21875
14.28,1769236105.234375
25.94,1769236105.25
31.21,1769236105.265625
31.64,1769236105.28125
28.46,1769236105.296875
22.34,1769236105.3125
13.73,1769236105.328125
3.53,1769236105.34375
-6.76,1769236105.359375
-15.41,1769236105.375
-21.19,1769236105.390625
-23.93,1769236105.40625
-24.45,1769236105.421875
-23.93,1769236105.4375
-22.98,1769236105.453125
-21.05,1769236105.46875
-16.57,1769236105.484375
-7.73,1769236105.5
6.37,1769236105.515625
24.9,1769236105.53125
45.22,1769236105.546875
63.55,1769236105.5625
76.12,1769236105.578125
80.39,1769236105.59375
75.9,1769236105.609375
64.19,1769236105.625
48.38,1769236105.640625
32.0,1769236105.65625
17.97,1769236105.671875
7.7,1769236105.6875
0.77,1769236105.703125
-5.2,1769236105.71875
-13.95,1769236105.734375
-29.71,1769236105.75
-55.56,1769236105.765625
-91.84,1769236105.78125
-135.11,1769236105.796875
-178.41,1769236105.8125
-213.05,1769236105.828125
-231.25,1769236105.84375
-228.78,1769236105.859375
-206.23,1769236105.875
-168.65,1769236105.890625
-123.56,1769236105.90625
-78.4,1769236105.921875
-38.59,1769236105.9375
-6.72,1769236105.953125
16.89,1769236105.96875
33.11,1769236105.984375
43.1,1769236106.0
47.83,1769236106.015625
48.3,1769236106.03125
45.79,1769236106.046875
41.96,1769236106.0625
38.53,1769236106.078125
36.81,1769236106.09375
37.21,1769236106.109375
39.05,1769236106.125
41.02,1769236106.140625
41.83,1769236106.15625
40.84,1769236106.171875
38.26,1769236106.1875
34.86,1769236106.203125
31.25,1769236106.21875
27.45,1769236106.234375
22.67,1769236106.25
15.8,1769236106.265625
5.97,1769236106.28125
-6.79,1769236106.296875
-21.47,1769236106.3125
-36.37,1769236106.328125
-49.81,1769236106.34375
-60.86,1769236106.359375
-69.85,1769236106.375
-78.35,1769236106.390625
-88.73,1769236106.40625
-103.07,1769236106.421875
-122.12,1769236106.4375
-144.33,1769236106.453125
-165.73,1769236106.46875
-180.72,1769236106.484375
-183.69,1769236106.5
-170.9,1769236106.515625
-141.92,1769236106.53125
-99.88,1769236106.546875
-50.6,1769236106.5625
-0.71,1769236106.578125
44.16,1769236106.59375
80.62,1769236106.609375
107.68,1769236106.625
126.1,1769236106.640625
137.37,1769236106.65625
142.9,1769236106.671875
143.81,1769236106.6875
140.98,1769236106.703125
135.35,1769236106.71875
127.99,1769236106.734375
119.92,1769236106.75
111.81,1769236106.765625
103.87,1769236106.78125
95.93,1769236106.796875
87.75,1769236106.8125
79.47,1769236106.828125
71.73,1769236106.84375
65.45,1769236106.859375
61.28,1769236106.875
59.13,1769236106.890625
57.97,1769236106.90625
56.14,1769236106.921875
51.92,1769236106.9375
44.32,1769236106.953125
33.41,1769236106.96875
20.32,1769236106.984375
6.76,1769236107.0
-5.72,1769236107.015625
-16.25,1769236107.03125
-25.01,1769236107.046875
-33.19,1769236107.0625
-42.61,1769236107.078125
-55.14,1769236107.09375
-72.04,1769236107.109375
-93.08,1769236107.125
-116.08,1769236107.140625
-136.87,1769236107.15625
-150.01,1769236107.171875
-150.45,1769236107.1875
-135.27,1769236107.203125
-105.0,1769236107.21875
-63.84,1769236107.234375
-18.35,1769236107.25
24.65,1769236107.265625
60.2,1769236107.28125
86.31,1769236107.296875
103.74,1769236107.3125
114.71,1769236107.328125
121.48,1769236107.34375
125.35,1769236107.359375
126.67,1769236107.375
125.36,1769236107.390625
121.68,1769236107.40625
116.48,1769236107.421875
111.02,1769236107.4375
106.46,1769236107.453125
103.43,1769236107.46875
101.78,1769236107.484375
100.7,1769236107.5
99.05,1769236107.515625
95.7,1769236107.53125
89.83,1769236107.546875
81.11,1769236107.5625
69.77,1769236107.578125
56.52,1769236107.59375
42.19,1769236107.609375
27.48,1769236107.625
12.61,1769236107.640625
-2.72,1769236107.65625
-19.29,1769236107.671875
-38.0,1769236107.6875
-59.66,1769236107.703125
-84.59,1769236107.71875
-112.33,1769236107.734375
-141.14,1769236107.75
-167.85,1769236107.765625
-187.93,1769236107.78125
-196.49,1769236107.796875
-189.68,1769236107.8125
-166.23,1769236107.828125
-128.4,1769236107.84375
-81.58,1769236107.859375
-32.84,1769236107.875
11.25,1769236107.890625
46.32,1769236107.90625
70.9,1769236107.921875
85.93,1769236107.9375
93.4,1769236107.953125
95.25,1769236107.96875
92.66,1769236107.984375
86.24,1769236108.0
76.49,1769236108.015625
64.34,1769236108.03125
51.24,1769236108.046875
38.87,1769236108.0625
28.77,1769236108.078125
21.83,1769236108.09375
18.15,1769236108.109375
17.05,1769236108.125
17.31,1769236108.140625
17.51,1769236108.15625
16.37,1769236108.171875
13.06,1769236108.1875
7.3,1769236108.203125
-0.64,1769236108.21875
-10.16,1769236108.234375
-20.53,1769236108.25
-31.23,1769236108.265625
-42.09,1769236108.28125
-53.37,1769236108.296875
-65.76,1769236108.3125
-80.24,1769236108.328125
-97.71,1769236108.34375
-118.33,1769236108.359375
-140.89,1769236108.375
-162.35,1769236108.390625
-178.05,1769236108.40625
-182.87,1769236108.421875
-172.74,1769236108.4375
-146.28,1769236108.453125
-105.58,1769236108.46875
-55.81,1769236108.484375
-3.67,1769236108.5
44.62,1769236108.515625
84.82,1769236108.53125
115.31,1769236108.546875
136.53,1769236108.5625
149.92,1769236108.578125
156.83,1769236108.59375
158.13,1769236108.609375
154.43,1769236108.625
146.59,1769236108.640625
136.03,1769236108.65625
124.68,1769236108.671875
114.43,1769236108.6875
106.52,1769236108.703125
101.18,1769236108.71875
97.69,1769236108.734375
94.92,1769236108.75
91.89,1769236108.765625
88.23,1769236108.78125
84.18,1769236108.796875
80.26,1769236108.8125
76.82,1769236108.828125
73.67,1769236108.84375
69.91,1769236108.859375
64.15,1769236108.875
54.86,1769236108.890625
40.76,1769236108.90625
21.17,1769236108.921875
-3.54,1769236108.9375
-31.48,1769236108.953125
-59.02,1769236108.96875
-80.99,1769236108.984375
-91.84,1769236109.0
-87.28,1769236109.015625
-65.97,1769236109.03125
-30.41,1769236109.046875
13.51,1769236109.0625
58.37,1769236109.078125
97.37,1769236109.09375
126.13,1769236109.109375
143.23,1769236109.125
149.49,1769236109.140625
146.64,1769236109.15625
136.33,1769236109.171875
119.63,1769236109.1875
97.45,1769236109.203125
71.02,1769236109.21875
42.25,1769236109.234375
13.55,1769236109.25
-12.73,1769236109.265625
-34.89,1769236109.28125
-52.33,1769236109.296875
-65.53,1769236109.3125
-75.71,1769236109.328125
-84.15,1769236109.34375
-91.76,1769236109.359375
-98.82,1769236109.375
-105.09,1769236109.390625
-110.09,1769236109.40625
-113.58,1769236109.421875
-115.74,1769236109.4375
-117.21,1769236109.453125
-118.91,1769236109.46875
-121.81,1769236109.484375
-126.81,1769236109.5
-134.69,1769236109.515625
-145.97,1769236109.53125
-160.47,1769236109.546875
-176.77,1769236109.5625
-191.83,1769236109.578125
-201.17,1769236109.59375
-199.96,1769236109.609375
-184.56,1769236109.625
-154.1,1769236109.640625
-111.25,1769236109.65625
-61.57,1769236109.671875
-11.88,1769236109.6875
31.85,1769236109.703125
66.08,1769236109.71875
90.11,1769236109.734375
105.37,1769236109.75
114.12,1769236109.765625
118.29,1769236109.78125
118.9,1769236109.796875
116.29,1769236109.8125
110.73,1769236109.828125
102.97,1769236109.84375
94.32,1769236109.859375
86.39,1769236109.875
80.48,1769236109.890625
77.09,1769236109.90625
75.74,1769236109.921875
75.25,1769236109.9375
74.25,1769236109.953125
71.68,1769236109.96875
67.18,1769236109.984375
60.98,1769236110.0
53.71,1769236110.015625
45.96,1769236110.03125
37.95,1769236110.046875
29.49,1769236110.0625
20.1,1769236110.078125
9.2,1769236110.09375
-3.64,1769236110.109375
-18.64,1769236110.125
-35.9,1769236110.140625
-55.3,1769236110.15625
-76.25,1769236110.171875
-97.14,1769236110.1875
-115.04,1769236110.203125
-125.94,1769236110.21875
-125.83,1769236110.234375
-112.23,1769236110.25
-85.55,1769236110.265625
-49.38,1769236110.28125
-9.59,1769236110.296875
27.62,1769236110.3125
57.63,1769236110.328125
78.47,1769236110.34375
90.69,1769236110.359375
96.22,1769236110.375
97.08,1769236110.390625
94.61,1769236110.40625
89.36,1769236110.421875
81.61,1769236110.4375
71.85,1769236110.453125
61.0,1769236110.46875
50.29,1769236110.484375
40.95,1769236110.5
33.86,1769236110.515625
29.36,1769236110.53125
27.19,1769236110.546875
26.57,1769236110.5625
26.48,1769236110.578125
25.98,1769236110.59375
24.37,1769236110.609375
21.4,1769236110.625
17.13,1769236110.640625
11.82,1769236110.65625
5.72,1769236110.671875
-1.01,1769236110.6875
-8.23,1769236110.703125
-15.83,1769236110.71875
-23.73,1769236110.734375
-32.07,1769236110.75
-41.41,1769236110.765625
-52.6,1769236110.78125
-66.36,1769236110.796875
-82.36,1769236110.8125
-98.61,1769236110.828125
-111.31,1769236110.84375
-115.88,1769236110.859375
-108.54,1769236110.875
-88.01,1769236110.890625
-56.37,1769236110.90625
-18.53,1769236110.921875
19.39,1769236110.9375
52.09,1769236110.953125
76.54,1769236110.96875
92.27,1769236110.984375
100.67,1769236111.0
103.69,1769236111.015625
102.93,1769236111.03125
99.29,1769236111.046875
93.23,1769236111.0625
85.19,1769236111.078125
75.87,1769236111.09375
66.11,1769236111.109375
56.7,1769236111.125
48.19,1769236111.140625
40.78,1769236111.15625
34.47,1769236111.171875
29.13,1769236111.1875
24.64,1769236111.203125
20.82,1769236111.21875
17.41,1769236111.234375
14.04,1769236111.25
10.27,1769236111.265625
5.69,1769236111.28125
0.05,1769236111.296875
-6.66,1769236111.3125
-14.18,1769236111.328125
-22.04,1769236111.34375
-29.75,1769236111.359375
-37.03,1769236111.375
-43.93,1769236111.390625
-51.06,1769236111.40625
-59.46,1769236111.421875
-70.26,1769236111.4375
-84.0,1769236111.453125
-99.78,1769236111.46875
-114.88,1769236111.484375
-125.06,1769236111.5
-125.78,1769236111.515625
-113.91,1769236111.53125
-89.17,1769236111.546875
-54.56,1769236111.5625
-15.49,1769236111.578125
22.09,1769236111.59375
53.57,1769236111.609375
76.84,1769236111.625
92.2,1769236111.640625
101.4,1769236111.65625
106.41,1769236111.671875
108.55,1769236111.6875
108.39,1769236111.703125
106.14,1769236111.71875
102.05,1769236111.734375
96.59,1769236111.75
90.39,1769236111.765625
83.94,1769236111.78125
77.51,1769236111.796875
71.17,1769236111.8125
64.95,1769236111.828125
58.93,1769236111.84375
53.28,1769236111.859375
48.0,1769236111.875
42.89,1769236111.890625
37.36,1769236111.90625
30.7,1769236111.921875
22.35,1769236111.9375
12.22,1769236111.953125
0.79,1769236111.96875
-11.09,1769236111.984375
-22.44,1769236112.0
-32.68,1769236112.015625
-41.85,1769236112.03125
-50.73,1769236112.046875
-60.63,1769236112.0625
-72.87,1769236112.078125
-88.13,1769236112.09375
-105.8,1769236112.109375
-123.62,1769236112.125
-137.87,1769236112.140625
-144.31,1769236112.15625
-139.56,1769236112.171875
-122.42,1769236112.1875
-94.59,1769236112.203125
-60.24,1769236112.21875
-24.77,1769236112.234375
6.95,1769236112.25
31.88,1769236112.265625
49.28,1769236112.28125
60.1,1769236112.296875
65.92,1769236112.3125
68.01,1769236112.328125
66.89,1769236112.34375
62.62,1769236112.359375
55.4,1769236112.375
45.97,1769236112.390625
35.71,1769236112.40625
26.26,1769236112.421875
18.99,1769236112.4375
14.56,1769236112.453125
12.76,1769236112.46875
12.63,1769236112.484375
12.88,1769236112.5
12.31,1769236112.515625
10.2,1769236112.53125
6.42,1769236112.546875
1.39,1769236112.5625
-4.23,1769236112.578125
-9.86,1769236112.59375
-15.3,1769236112.609375
-20.81,1769236112.625
-26.95,1769236112.640625
-34.37,1769236112.65625
-43.53,1769236112.671875
-54.64,1769236112.6875
-67.6,1769236112.703125
-81.87,1769236112.71875
-96.24,1769236112.734375
-108.5,1769236112.75
-115.58,1769236112.765625
-114.18,1769236112.78125
-102.08,1769236112.796875
-79.15,1769236112.8125
-47.94,1769236112.828125
-13.09,1769236112.84375
20.13,1769236112.859375
47.5,1769236112.875
67.0,1769236112.890625
78.89,1769236112.90625
84.97,1769236112.921875
87.45,1769236112.9375
88.09,1769236112.953125
87.97,1769236112.96875
87.74,1769236112.984375
87.91,1769236113.0
88.95,1769236113.015625
91.21,1769236113.03125
94.74,1769236113.046875
99.35,1769236113.0625
104.83,1769236113.078125
111.26,1769236113.09375
119.08,1769236113.109375
128.79,1769236113.125
140.46,1769236113.140625
153.1,1769236113.15625
164.52,1769236113.171875
171.54,1769236113.1875
170.91,1769236113.203125
160.33,1769236113.21875
139.28,1769236113.234375
109.24,1769236113.25
73.18,1769236113.265625
34.58,1769236113.28125
-3.64,1769236113.296875
-39.79,1769236113.3125
-73.67,1769236113.328125
-106.3,1769236113.34375
-139.26,1769236113.359375
-173.85,1769236113.375
-210.01,1769236113.390625
-245.38,1769236113.40625
-275.08,1769236113.421875
-292.56,1769236113.4375
-291.72,1769236113.453125
-269.51,1769236113.46875
-228.02,1769236113.484375
-174.56,1769236113.5
-119.56,1769236113.515625
-73.13,1769236113.53125
-41.81,1769236113.546875
-27.03,1769236113.5625
-25.87,1769236113.578125
-33.36,1769236113.59375
-44.91,1769236113.609375
-57.7,1769236113.625
-70.52,1769236113.640625
-82.73,1769236113.65625
-93.29,1769236113.671875
-100.57,1769236113.6875
-103.0,1769236113.703125
-99.95,1769236113.71875
-92.22,1769236113.734375
-81.67,1769236113.75
-70.38,1769236113.765625
-59.69,1769236113.78125
-49.8,1769236113.796875
-40.03,1769236113.8125
-29.58,1769236113.828125
-18.38,1769236113.84375
-7.36,1769236113.859375
1.75,1769236113.875
7.24,1769236113.890625
8.19,1769236113.90625
4.83,1769236113.921875
-1.54,1769236113.9375
-9.15,1769236113.953125
-16.52,1769236113.96875
-22.99,1769236113.984375
-28.96,1769236114.0
-35.68,1769236114.015625
-44.78,1769236114.03125
-57.47,1769236114.046875
-73.77,1769236114.0625
-91.91,1769236114.078125
-108.37,1769236114.09375
-118.64,1769236114.109375
-118.62,1769236114.125
-106.15,1769236114.140625
-81.88,1769236114.15625
-49.23,1769236114.171875
-13.17,1769236114.1875
21.42,1769236114.203125
51.16,1769236114.21875
74.73,1769236114.234375
92.43,1769236114.25
105.25,1769236114.265625
113.89,1769236114.28125
118.5,1769236114.296875
118.86,1769236114.3125
115.12,1769236114.328125
108.14,1769236114.34375
99.54,1769236114.359375
91.2,1769236114.375
84.53,1769236114.390625
79.97,1769236114.40625
76.95,1769236114.421875
74.35,1769236114.4375
71.15,1769236114.453125
66.96,1769236114.46875
62.15,1769236114.484375
57.55,1769236114.5
53.78,1769236114.515625
50.84,1769236114.53125
47.92,1769236114.546875
43.74,1769236114.5625
37.22,1769236114.578125
28.01,1769236114.59375
16.77,1769236114.609375
4.95,1769236114.625
-5.8,1769236114.640625
-14.29,1769236114.65625
-20.29,1769236114.671875
-24.61,1769236114.6875
-28.87,1769236114.703125
-34.82,1769236114.71875
-43.91,1769236114.734375
-56.68,1769236114.75
-72.44,1769236114.765625
-89.1,1769236114.78125
-103.25,1769236114.796875
-110.76,1769236114.8125
-107.85,1769236114.828125
-92.38,1769236114.84375
-64.77,1769236114.859375
-28.2,1769236114.875
12.25,1769236114.890625
51.14,1769236114.90625
84.28,1769236114.921875
109.62,1769236114.9375
127.18,1769236114.953125
138.19,1769236114.96875
143.97,1769236114.984375
145.3,1769236115.0
142.37,1769236115.015625
135.23,1769236115.03125
124.43,1769236115.046875
111.12,1769236115.0625
96.97,1769236115.078125
83.56,1769236115.09375
71.89,1769236115.109375
62.13,1769236115.125
53.79,1769236115.140625
46.17,1769236115.15625
38.91,1769236115.171875
32.21,1769236115.1875
26.73,1769236115.203125
23.07,1769236115.21875
21.24,1769236115.234375
20.4,1769236115.25
18.97,1769236115.265625
15.29,1769236115.28125
8.32,1769236115.296875
-1.81,1769236115.3125
-13.84,1769236115.328125
-25.85,1769236115.34375
-36.09,1769236115.359375
-43.67,1769236115.375
-48.85,1769236115.390625
-52.9,1769236115.40625
-57.6,1769236115.421875
-64.7,1769236115.4375
-75.36,1769236115.453125
-89.74,1769236115.46875
-106.67,1769236115.484375
-123.58,1769236115.5
-136.68,1769236115.515625
-141.85,1769236115.53125
-135.83,1769236115.546875
-117.52,1769236115.5625
-88.55,1769236115.578125
-53.02,1769236115.59375
-16.19,1769236115.609375
17.15,1769236115.625
44.0,1769236115.640625
63.55,1769236115.65625
76.64,1769236115.671875
84.64,1769236115.6875
88.69,1769236115.703125
89.26,1769236115.71875
86.61,1769236115.734375
81.2,1769236115.75
74.05,1769236115.765625
66.49,1769236115.78125
59.72,1769236115.796875
54.32,1769236115.8125
50.09,1769236115.828125
46.37,1769236115.84375
42.54,1769236115.859375
38.52,1769236115.875
34.72,1769236115.890625
31.79,1769236115.90625
30.05,1769236115.921875
29.13,1769236115.9375
27.91,1769236115.953125
24.92,1769236115.96875
19.02,1769236115.984375
9.89,1769236116.0
-1.7,1769236116.015625
-14.16,1769236116.03125
-25.7,1769236116.046875
-35.02,1769236116.0625
-41.87,1769236116.078125
-47.12,1769236116.09375
-52.5,1769236116.109375
-59.95,1769236116.125
-70.98,1769236116.140625
-85.96,1769236116.15625
-103.68,1769236116.171875
-121.29,1769236116.1875
-134.67,1769236116.203125
-139.44,1769236116.21875
-132.34,1769236116.234375
-112.45,1769236116.25
-81.75,1769236116.265625
-44.7,1769236116.28125
-6.79,1769236116.296875
27.19,1769236116.3125
54.32,1769236116.328125
73.98,1769236116.34375
87.07,1769236116.359375
95.0,1769236116.375
98.79,1769236116.390625
98.8,1769236116.40625
95.19,1769236116.421875
88.44,1769236116.4375
79.67,1769236116.453125
70.49,1769236116.46875
62.38,1769236116.484375
56.27,1769236116.5
52.11,1769236116.515625
49.12,1769236116.53125
46.17,1769236116.546875
42.37,1769236116.5625
37.51,1769236116.578125
32.04,1769236116.59375
26.8,1769236116.609375
22.43,1769236116.625
18.88,1769236116.640625
15.28,1769236116.65625
10.21,1769236116.671875
2.37,1769236116.6875
-8.8,1769236116.703125
-22.76,1769236116.71875
-37.93,1769236116.734375
-52.32,1769236116.75
-64.28,1769236116.765625
-73.07,1769236116.78125
-79.16,1769236116.796875
-83.96,1769236116.8125
-89.4,1769236116.828125
-97.33,1769236116.84375
-108.95,1769236116.859375
-124.27,1769236116.875
-141.66,1769236116.890625
-157.76,1769236116.90625
-167.96,1769236116.921875
-167.68,1769236116.9375
-153.84,1769236116.953125
-126.17,1769236116.96875
-87.64,1769236116.984375
-43.56,1769236117.0
0.1,1769236117.015625
38.58,1769236117.03125
69.37,1769236117.046875
92.31,1769236117.0625
108.71,1769236117.078125
120.12,1769236117.09375
127.53,1769236117.109375
131.31,1769236117.125
131.58,1769236117.140625
128.75,1769236117.15625
123.73,1769236117.171875
117.8,1769236117.1875
112.14,1769236117.203125
107.4,1769236117.21875
103.61,1769236117.234375
100.26,1769236117.25
96.69,1769236117.265625
92.47,1769236117.28125
87.64,1769236117.296875
82.64,1769236117.3125
78.06,1769236117.328125
74.24,1769236117.34375
70.96,1769236117.359375
67.39,1769236117.375
62.29,1769236117.390625
54.46,1769236117.40625
43.23,1769236117.421875
28.83,1769236117.4375
12.45,1769236117.453125
-4.13,1769236117.46875
-19.14,1769236117.484375
-31.41,1769236117.5
-40.85,1769236117.515625
-48.46,1769236117.53125
-55.95,1769236117.546875
-65.22,1769236117.5625
-77.78,1769236117.578125
-94.23,1769236117.59375
-113.95,1769236117.609375
-134.84,1769236117.625
-153.41,1769236117.640625
-165.3,1769236117.65625
-166.4,1769236117.671875
-154.15,1769236117.6875
-128.72,1769236117.703125
-93.24,1769236117.71875
-53.02,1769236117.734375
-13.92,1769236117.75
19.43,1769236117.765625
44.8,1769236117.78125
62.32,1769236117.796875
73.71,1769236117.8125
80.98,1769236117.828125
85.52,1769236117.84375
87.83,1769236117.859375
87.87,1769236117.875
85.58,1769236117.890625
81.31,1769236117.90625
75.79,1769236117.921875
69.89,1769236117.9375
64.29,1769236117.953125
59.31,1769236117.96875
54.88,1769236117.984375
50.79,1769236118.0
46.85,1769236118.015625
43.0,1769236118.03125
39.34,1769236118.046875
35.96,1769236118.0625
32.83,1769236118.078125
29.76,1769236118.09375
26.4,1769236118.109375
22.21,1769236118.125
16.66,1769236118.140625
9.31,1769236118.15625
-0.07,1769236118.171875
-11.3,1769236118.1875
-23.73,1769236118.203125
-36.33,1769236118.21875
-47.98,1769236118.234375
-57.84,1769236118.25
-65.59,1769236118.265625
-71.66,1769236118.28125
-77.02,1769236118.296875
-82.95,1769236118.3125
-90.72,1769236118.328125
-101.29,1769236118.34375
-114.94,1769236118.359375
-130.91,1769236118.375
-147.07,1769236118.390625
-159.91,1769236118.40625
-165.19,1769236118.421875
-159.23,1769236118.4375
-140.28,1769236118.453125
-109.48,1769236118.46875
-70.76,1769236118.484375
-29.71,1769236118.5
8.2,1769236118.515625
39.23,1769236118.53125
62.08,1769236118.546875
77.51,1769236118.5625
87.3,1769236118.578125
93.18,1769236118.59375
96.16,1769236118.609375
96.55,1769236118.625
94.44,1769236118.640625
90.12,1769236118.65625
84.32,1769236118.671875
78.04,1769236118.6875
72.19,1769236118.703125
67.32,1769236118.71875
63.44,1769236118.734375
60.16,1769236118.75
57.01,1769236118.765625
53.65,1769236118.78125
50.07,1769236118.796875
46.51,1769236118.8125
43.3,1769236118.828125
40.66,1769236118.84375
38.52,1769236118.859375
36.51,1769236118.875
34.0,1769236118.890625
30.35,1769236118.90625
25.0,1769236118.921875
17.76,1769236118.9375
8.88,1769236118.953125
-0.96,1769236118.96875
-10.84,1769236118.984375
-19.91,1769236119.0
-27.74,1769236119.015625
-34.46,1769236119.03125
-40.78,1769236119.046875
-47.69,1769236119.0625
-56.27,1769236119.078125
-67.31,1769236119.09375
-81.13,1769236119.109375
-97.3,1769236119.125
-114.27,1769236119.140625
-129.29,1769236119.15625
-138.7,1769236119.171875
-138.81,1769236119.1875
-127.19,1769236119.203125
-103.75,1769236119.21875
-71.09,1769236119.234375
-33.83,1769236119.25
2.77,1769236119.265625
34.45,1769236119.28125
58.83,1769236119.296875
75.56,1769236119.3125
85.55,1769236119.328125
90.08,1769236119.34375
90.17,1769236119.359375
86.52,1769236119.375
79.84,1769236119.390625
71.2,1769236119.40625
62.04,1769236119.421875
53.85,1769236119.4375
47.66,1769236119.453125
43.76,1769236119.46875
41.64,1769236119.484375
40.38,1769236119.5
39.1,1769236119.515625
37.41,1769236119.53125
35.52,1769236119.546875
33.96,1769236119.5625
33.15,1769236119.578125
32.91,1769236119.59375
32.35,1769236119.609375
30.13,1769236119.625
25.01,1769236119.640625
16.48,1769236119.65625
5.03,1769236119.671875
-7.91,1769236119.6875
-20.53,1769236119.703125
-31.24,1769236119.71875
-39.27,1769236119.734375
-44.92,1769236119.75
-49.42,1769236119.765625
-54.45,1769236119.78125
-61.75,1769236119.796875
-72.49,1769236119.8125
-86.86,1769236119.828125
-103.66,1769236119.84375
-120.13,1769236119.859375
-132.34,1769236119.875
-136.07,1769236119.890625
-128.18,1769236119.90625
-107.89,1769236119.921875
-77.33,1769236119.9375
-41.06,1769236119.953125
-4.61,1769236119.96875
27.27,1769236119.984375
51.91,1769236120.0
68.98,1769236120.015625
79.77,1769236120.03125
85.98,1769236120.046875
88.78,1769236120.0625
88.49,1769236120.078125
85.06,1769236120.09375
78.72,1769236120.109375
70.37,1769236120.125
61.55,1769236120.140625
53.83,1769236120.15625
48.24,1769236120.171875
44.76,1769236120.1875
42.56,1769236120.203125
40.43,1769236120.21875
37.52,1769236120.234375
33.71,1769236120.25
29.6,1769236120.265625
26.05,1769236120.28125
23.52,1769236120.296875
21.69,1769236120.3125
19.42,1769236120.328125
15.25,1769236120.34375
8.04,1769236120.359375
-2.44,1769236120.375
-15.4,1769236120.390625
-29.17,1769236120.40625
-41.92,1769236120.421875
-52.24,1769236120.4375
-59.67,1769236120.453125
-64.88,1769236120.46875
-69.36,1769236120.484375
-75.07,1769236120.5
-83.79,1769236120.515625
-96.65,1769236120.53125
-113.56,1769236120.546875
-132.84,1769236120.5625
-151.18,1769236120.578125
-164.02,1769236120.59375
-166.75,1769236120.609375
-156.11,1769236120.625
-131.57,1769236120.640625
-95.79,1769236120.65625
-54.0,1769236120.671875
-12.37,1769236120.6875
23.91,1769236120.703125
51.95,1769236120.71875
71.5,1769236120.734375
84.12,1769236120.75
91.97,1769236120.765625
96.71,1769236120.78125
99.14,1769236120.796875
99.37,1769236120.8125
97.32,1769236120.828125
93.26,1769236120.84375
87.83,1769236120.859375
81.97,1769236120.875
76.52,1769236120.890625
71.91,1769236120.90625
68.08,1769236120.921875
64.64,1769236120.9375
61.19,1769236120.953125
57.59,1769236120.96875
54.09,1769236120.984375
51.1,1769236121.0
48.87,1769236121.015625
47.21,1769236121.03125
45.27,1769236121.046875
41.85,1769236121.0625
35.74,1769236121.078125
26.22,1769236121.09375
13.41,1769236121.109375
-1.66,1769236121.125
-17.39,1769236121.140625
-32.03,1769236121.15625
-44.35,1769236121.171875
-53.99,1769236121.1875
-61.62,1769236121.203125
-68.71,1769236121.21875
-77.03,1769236121.234375
-88.17,1769236121.25
-103.1,1769236121.265625
-121.73,1769236121.28125
-142.65,1769236121.296875
-162.95,1769236121.3125
-178.49,1769236121.328125
-184.67,1769236121.34375
-177.8,1769236121.359375
-156.45,1769236121.375
-122.33,1769236121.390625
-80.02,1769236121.40625
-35.66,1769236121.421875
4.91,1769236121.4375
37.79,1769236121.453125
61.68,1769236121.46875
77.47,1769236121.484375
87.16,1769236121.5
92.73,1769236121.515625
95.46,1769236121.53125
95.84,1769236121.546875
94.01,1769236121.5625
90.11,1769236121.578125
84.62,1769236121.59375
78.33,1769236121.609375
72.08,1769236121.625
66.53,1769236121.640625
61.89,1769236121.65625
57.94,1769236121.671875
54.16,1769236121.6875
50.08,1769236121.703125
45.48,1769236121.71875
40.57,1769236121.734375
35.78,1769236121.75
31.43,1769236121.765625
27.45,1769236121.78125
23.24,1769236121.796875
17.82,1769236121.8125
10.17,1769236121.828125
-0.32,1769236121.84375
-13.54,1769236121.859375
-28.62,1769236121.875
-44.18,1769236121.890625
-58.81,1769236121.90625
-71.57,1769236121.921875
-82.33,1769236121.9375
-91.75,1769236121.953125
-100.95,1769236121.96875
-111.23,1769236121.984375
-123.71,1769236122.0
-139.15,1769236122.015625
-157.71,1769236122.03125
-178.53,1769236122.046875
-199.27,1769236122.0625
-216.01,1769236122.078125
-223.8,1769236122.09375
-218.1,1769236122.109375
-196.44,1769236122.125
-159.7,1769236122.140625
-112.09,1769236122.15625
-59.84,1769236122.171875
-9.27,1769236122.1875
35.13,1769236122.203125
71.39,1769236122.21875
99.71,1769236122.234375
121.36,1769236122.25
137.51,1769236122.265625
148.77,1769236122.28125
155.29,1769236122.296875
157.32,1769236122.3125
155.54,1769236122.328125
151.13,1769236122.34375
145.48,1769236122.359375
139.66,1769236122.375
134.16,1769236122.390625
128.86,1769236122.40625
123.26,1769236122.421875
116.89,1769236122.4375
109.7,1769236122.453125
102.21,1769236122.46875
95.25,1769236122.484375
89.56,1769236122.5
85.22,1769236122.515625
81.52,1769236122.53125
77.01,1769236122.546875
70.1,1769236122.5625
59.76,1769236122.578125
46.01,1769236122.59375
30.03,1769236122.609375
13.74,1769236122.625
-0.9,1769236122.640625
-12.61,1769236122.65625
-21.26,1769236122.671875
-27.86,1769236122.6875
-34.12,1769236122.703125
-41.88,1769236122.71875
-52.62,1769236122.734375
-67.01,1769236122.75
-84.71,1769236122.765625
-104.08,1769236122.78125
-122.15,1769236122.796875
-134.97,1769236122.8125
-138.43,1769236122.828125
-129.58,1769236122.84375
-107.82,1769236122.859375
-75.43,1769236122.875
-37.06,1769236122.890625
1.66,1769236122.90625
35.87,1769236122.921875
62.68,1769236122.9375
81.41,1769236122.953125
92.99,1769236122.96875
98.83,1769236122.984375
100.18,1769236123.0
97.85,1769236123.015625
92.56,1769236123.03125
85.27,1769236123.046875
77.23,1769236123.0625
69.72,1769236123.078125
63.59,1769236123.09375
59.0,1769236123.109375
55.46,1769236123.125
52.28,1769236123.140625
48.98,1769236123.15625
45.68,1769236123.171875
42.89,1769236123.1875
41.17,1769236123.203125
40.58,1769236123.21875
40.41,1769236123.234375
39.32,1769236123.25
35.81,1769236123.265625
28.97,1769236123.28125
18.9,1769236123.296875
6.76,1769236123.3125
-5.73,1769236123.328125
-16.97,1769236123.34375
-26.16,1769236123.359375
-33.51,1769236123.375
-40.15,1769236123.390625
-47.69,1769236123.40625
-57.62,1769236123.421875
-70.86,1769236123.4375
-87.17,1769236123.453125
-104.83,1769236123.46875
-120.64,1769236123.484375
-130.39,1769236123.5
-130.09,1769236123.515625
-117.31,1769236123.53125
-92.31,1769236123.546875
-58.22,1769236123.5625
-20.23,1769236123.578125
16.12,1769236123.59375
46.49,1769236123.609375
68.84,1769236123.625
83.26,1769236123.640625
91.18,1769236123.65625
94.3,1769236123.671875
93.88,1769236123.6875
90.65,1769236123.703125
85.15,1769236123.71875
78.09,1769236123.734375
70.44,1769236123.75
63.2,1769236123.765625
56.97,1769236123.78125
51.81,1769236123.796875
47.34,1769236123.8125
43.06,1769236123.828125
38.77,1769236123.84375
34.75,1769236123.859375
31.52,1769236123.875
29.38,1769236123.890625
28.01,1769236123.90625
26.34,1769236123.921875
22.89,1769236123.9375
16.42,1769236123.953125
6.54,1769236123.96875
-5.98,1769236123.984375
-19.5,1769236124.0
-32.16,1769236124.015625
-42.59,1769236124.03125
-50.51,1769236124.046875
-56.81,1769236124.0625
-63.23,1769236124.078125
-71.78,1769236124.09375
-83.98,1769236124.109375
-100.13,1769236124.125
-118.75,1769236124.140625
-136.54,1769236124.15625
-148.94,1769236124.171875
-151.39,1769236124.1875
-140.84,1769236124.203125
-117.09,1769236124.21875
-83.02,1769236124.234375
-43.89,1769236124.25
-5.6,1769236124.265625
27.09,1769236124.28125
51.7,1769236124.296875
68.17,1769236124.3125
78.04,1769236124.328125
83.36,1769236124.34375
85.78,1769236124.359375
86.24,1769236124.375
85.17,1769236124.390625
82.87,1769236124.40625
79.68,1769236124.421875
75.98,1769236124.4375
71.97,1769236124.453125
67.59,1769236124.46875
62.65,1769236124.484375
57.02,1769236124.5
50.97,1769236124.515625
45.15,1769236124.53125
40.43,1769236124.546875
37.43,1769236124.5625
36.12,1769236124.578125
35.64,1769236124.59375
34.57,1769236124.609375
31.43,1769236124.625
25.3,1769236124.640625
16.19,1769236124.65625
5.05,1769236124.671875
-6.64,1769236124.6875
-17.45,1769236124.703125
-26.56,1769236124.71875
-34.04,1769236124.734375
-40.87,1769236124.75
-48.58,1769236124.765625
-58.8,1769236124.78125
-72.56,1769236124.796875
-89.55,1769236124.8125
-107.76,1769236124.828125
-123.55,1769236124.84375
-132.45,1769236124.859375
-130.58,1769236124.875
-116.18,1769236124.890625
-90.46,1769236124.90625
-57.36,1769236124.921875
-22.24,1769236124.9375
9.9,1769236124.953125
35.85,1769236124.96875
54.75,1769236124.984375
67.5,1769236125.0
75.67,1769236125.015625
80.59,1769236125.03125
82.86,1769236125.046875
82.67,1769236125.0625
80.25,1769236125.078125
76.2,1769236125.09375
71.48,1769236125.109375
67.01,1769236125.125
63.25,1769236125.140625
60.09,1769236125.15625
56.93,1769236125.171875
53.1,1769236125.1875
48.35,1769236125.203125
42.97,1769236125.21875
37.76,1769236125.234375
33.59,1769236125.25
30.87,1769236125.265625
29.31,1769236125.28125
27.77,1769236125.296875
24.77,1769236125.3125
19.0,1769236125.328125
10.01,1769236125.34375
-1.63,1769236125.359375
-14.43,1769236125.375
-26.58,1769236125.390625
-36.66,1769236125.40625
-44.15,1769236125.421875
-49.65,1769236125.4375
-54.6,1769236125.453125
-60.8,1769236125.46875
-69.79,1769236125.484375
-82.33,1769236125.5
-98.02,1769236125.515625
-115.06,1769236125.53125
-130.4,1769236125.546875
-140.27,1769236125.5625
-141.29,1769236125.578125
-131.46,1769236125.59375
-111.08,1769236125.609375
-82.81,1769236125.625
-50.89,1769236125.640625
-19.79,1769236125.65625
7.13,1769236125.671875
28.27,1769236125.6875
43.71,1769236125.703125
54.4,1769236125.71875
61.31,1769236125.734375
65.02,1769236125.75
65.74,1769236125.765625
63.75,1769236125.78125
59.73,1769236125.796875
54.78,1769236125.8125
50.06,1769236125.828125
46.38,1769236125.84375
43.87,1769236125.859375
42.1,1769236125.875
40.34,1769236125.890625
38.07,1769236125.90625
35.24,1769236125.921875
32.32,1769236125.9375
29.98,1769236125.953125
28.57,1769236125.96875
27.86,1769236125.984375
26.99,1769236126.0
24.78,1769236126.015625
20.25,1769236126.03125
13.14,1769236126.046875
4.05,1769236126.0625
-5.74,1769236126.078125
-14.76,1769236126.09375
-21.92,1769236126.109375
-26.9,1769236126.125
-30.24,1769236126.140625
-33.15,1769236126.15625
-37.11,1769236126.171875
-43.44,1769236126.1875
-52.94,1769236126.203125
-65.47,1769236126.21875
-79.75,1769236126.234375
-93.26,1769236126.25
-102.74,1769236126.265625
-104.99,1769236126.28125
-97.91,1769236126.296875
-81.39,1769236126.3125
-57.49,1769236126.328125
-29.88,1769236126.34375
-2.63,1769236126.359375
20.99,1769236126.375
39.32,1769236126.390625
52.22,1769236126.40625
60.54,1769236126.421875
65.27,1769236126.4375
67.05,1769236126.453125
66.16,1769236126.46875
62.83,1769236126.484375
57.66,1769236126.5
51.6,1769236126.515625
45.74,1769236126.53125
40.83,1769236126.546875
37.05,1769236126.5625
34.04,1769236126.578125
31.24,1769236126.59375
28.32,1769236126.609375
25.37,1769236126.625
22.82,1769236126.640625
21.07,1769236126.65625
20.15,1769236126.671875
19.44,1769236126.6875
17.94,1769236126.703125
14.62,1769236126.71875
8.92,1769236126.734375
1.1,1769236126.75
-7.86,1769236126.765625
-16.6,1769236126.78125
-23.93,1769236126.796875
-29.31,1769236126.8125
-33.1,1769236126.828125
-36.43,1769236126.84375
-40.8,1769236126.859375
-47.65,1769236126.875
-57.7,1769236126.890625
-70.61,1769236126.90625
-84.66,1769236126.921875
-96.92,1769236126.9375
-103.82,1769236126.953125
-102.22,1769236126.96875
-90.57,1769236126.984375
-69.63,1769236127.0
-42.46,1769236127.015625
-13.45,1769236127.03125
13.14,1769236127.046875
34.51,1769236127.0625
49.82,1769236127.078125
59.88,1769236127.09375
66.19,1769236127.109375
69.96,1769236127.125
71.69,1769236127.140625
71.29,1769236127.15625
68.68,1769236127.171875
64.16,1769236127.1875
58.6,1769236127.203125
53.12,1769236127.21875
48.64,1769236127.234375
45.59,1769236127.25
43.71,1769236127.265625
42.37,1769236127.28125
40.79,1769236127.296875
38.44,1769236127.3125
35.17,1769236127.328125
31.25,1769236127.34375
27.18,1769236127.359375
23.38,1769236127.375
20.0,1769236127.390625
16.7,1769236127.40625
12.84,1769236127.421875
7.72,1769236127.4375
0.89,1769236127.453125
-7.53,1769236127.46875
-16.93,1769236127.484375
-26.31,1769236127.5
-34.66,1769236127.515625
-41.31,1769236127.53125
-46.14,1769236127.546875
-49.65,1769236127.5625
-52.8,1769236127.578125
-56.79,1769236127.59375
-62.77,1769236127.609375
-71.59,1769236127.625
-83.4,1769236127.640625
-97.33,1769236127.65625
-111.28,1769236127.671875
-122.01,1769236127.6875
-126.01,1769236127.703125
-120.49,1769236127.71875
-104.6,1769236127.734375
-79.85,1769236127.75
-49.85,1769236127.765625
-19.11,1769236127.78125
8.43,1769236127.796875
30.41,1769236127.8125
46.42,1769236127.828125
57.41,1769236127.84375
64.8,1769236127.859375
69.73,1769236127.875
72.75,1769236127.890625
73.96,1769236127.90625
73.36,1769236127.921875
71.12,1769236127.9375
67.64,1769236127.953125
63.43,1769236127.96875
59.01,1769236127.984375
54.75,1769236128.0
50.89,1769236128.015625
47.52,1769236128.03125
44.61,1769236128.046875
42.07,1769236128.0625
39.79,1769236128.078125
37.66,1769236128.09375
35.57,1769236128.109375
33.41,1769236128.125
30.97,1769236128.140625
27.99,1769236128.15625
24.1,1769236128.171875
19.02,1769236128.1875
12.58,1769236128.203125
4.95,1769236128.21875
-3.48,1769236128.234375
-12.04,1769236128.25
-20.05,1769236128.265625
-26.99,1769236128.28125
-32.62,1769236128.296875
-37.14,1769236128.3125
-41.1,1769236128.328125
-45.32,1769236128.34375
-50.69,1769236128.359375
-58.06,1769236128.375
-67.94,1769236128.390625
-80.27,1769236128.40625
-94.12,1769236128.421875
-107.46,1769236128.4375
-117.35,1769236128.453125
-120.59,1769236128.46875
-114.72,1769236128.484375
-99.03,1769236128.5
-75.03,1769236128.515625
-46.14,1769236128.53125
-16.61,1769236128.546875
9.8,1769236128.5625
30.84,1769236128.578125
46.09,1769236128.59375
56.43,1769236128.609375
63.3,1769236128.625
67.84,1769236128.640625
70.64,1769236128.65625
71.84,1769236128.671875
71.49,1769236128.6875
69.85,1769236128.703125
67.38,1769236128.71875
64.61,1769236128.734375
61.85,1769236128.75
59.24,1769236128.765625
56.68,1769236128.78125
54.16,1769236128.796875
51.81,1769236128.8125
49.91,1769236128.828125
48.69,1769236128.84375
48.08,1769236128.859375
47.62,1769236128.875
46.55,1769236128.890625
44.05,1769236128.90625
39.63,1769236128.921875
33.35,1769236128.9375
25.83,1769236128.953125
17.96,1769236128.96875
10.55,1769236128.984375
3.95,1769236129.0
-1.98,1769236129.015625
-7.79,1769236129.03125
-14.03,1769236129.046875
-20.94,1769236129.0625
-28.34,1769236129.078125
-35.66,1769236129.09375
-42.24,1769236129.109375
-47.72,1769236129.125
-52.28,1769236129.140625
-56.71,1769236129.15625
-62.21,1769236129.171875
-69.97,1769236129.1875
-80.68,1769236129.203125
-94.03,1769236129.21875
-108.33,1769236129.234375
-120.61,1769236129.25
-127.28,1769236129.265625
-125.14,1769236129.28125
-112.57,1769236129.296875
-90.26,1769236129.3125
-61.19,1769236129.328125
-29.66,1769236129.34375
0.03,1769236129.359375
24.81,1769236129.375
43.49,1769236129.390625
56.51,1769236129.40625
65.18,1769236129.421875
70.81,1769236129.4375
74.23,1769236129.453125
75.74,1769236129.46875
75.5,1769236129.484375
73.75,1769236129.5
70.98,1769236129.515625
67.73,1769236129.53125
64.45,1769236129.546875
61.31,1769236129.5625
58.26,1769236129.578125
55.26,1769236129.59375
52.42,1769236129.609375
50.04,1769236129.625
48.47,1769236129.640625
47.9,1769236129.65625
48.07,1769236129.671875
48.27,1769236129.6875
47.54,1769236129.703125
44.92,1769236129.71875
39.92,1769236129.734375
32.72,1769236129.75
24.19,1769236129.765625
15.54,1769236129.78125
7.87,1769236129.796875
1.68,1769236129.8125
-3.3,1769236129.828125
-7.9,1769236129.84375
-13.13,1769236129.859375
-19.61,1769236129.875
-27.29,1769236129.890625
-35.5,1769236129.90625
-43.27,1769236129.921875
-49.88,1769236129.9375
-55.24,1769236129.953125
-59.97,1769236129.96875
-65.23,1769236129.984375
-72.35,1769236130.0
-82.3,1769236130.015625
-95.24,1769236130.03125
-110.12,1769236130.046875
-124.58,1769236130.0625
-135.21,1769236130.078125
-138.4,1769236130.09375
-131.44,1769236130.109375
-113.57,1769236130.125
-86.47,1769236130.140625
-53.87,1769236130.15625
-20.43,1769236130.171875
9.66,1769236130.1875
33.79,1769236130.203125
51.28,1769236130.21875
62.92,1769236130.234375
70.14,1769236130.25
74.17,1769236130.265625
75.73,1769236130.28125
75.13,1769236130.296875
72.63,1769236130.3125
68.69,1769236130.328125
64.08,1769236130.34375
59.61,1769236130.359375
55.94,1769236130.375
53.38,1769236130.390625
51.86,1769236130.40625
51.09,1769236130.421875
50.64,1769236130.4375
50.15,1769236130.453125
49.3,1769236130.46875
47.95,1769236130.484375
46.04,1769236130.5
43.57,1769236130.515625
40.5,1769236130.53125
36.68,1769236130.546875
31.79,1769236130.5625
25.52,1769236130.578125
17.69,1769236130.59375
8.51,1769236130.609375
-1.36,1769236130.625
-10.98,1769236130.640625
-19.41,1769236130.65625
-26.12,1769236130.671875
-31.18,1769236130.6875
-35.29,1769236130.703125
-39.49,1769236130.71875
-44.87,1769236130.734375
-52.25,1769236130.75
-62.08,1769236130.765625
-74.24,1769236130.78125
-87.92,1769236130.796875
-101.39,1769236130.8125
-111.99,1769236130.828125
-116.61,1769236130.84375
-112.51,1769236130.859375
-98.36,1769236130.875
-75.02,1769236130.890625
-45.45,1769236130.90625
-13.96,1769236130.921875
15.19,1769236130.9375
38.96,1769236130.953125
56.21,1769236130.96875
67.35,1769236130.984375
73.58,1769236131.0
76.07,1769236131.015625
75.46,1769236131.03125
72.04,1769236131.046875
66.21,1769236131.0625
58.79,1769236131.078125
51.1,1769236131.09375
44.53,1769236131.109375
40.06,1769236131.125
37.85,1769236131.140625
37.24,1769236131.15625
37.11,1769236131.171875
36.39,1769236131.1875
34.6,1769236131.203125
31.86,1769236131.21875
28.8,1769236131.234375
26.05,1769236131.25
23.72,1769236131.265625
21.35,1769236131.28125
17.92,1769236131.296875
12.36,1769236131.3125
4.05,1769236131.328125
-6.8,1769236131.34375
-19.1,1769236131.359375
-31.27,1769236131.375
-41.78,1769236131.390625
-49.78,1769236131.40625
-55.44,1769236131.421875
-59.84,1769236131.4375
-64.7,1769236131.453125
-71.76,1769236131.46875
-82.29,1769236131.484375
-96.56,1769236131.5
-113.48,1769236131.515625
-130.52,1769236131.53125
-143.99,1769236131.546875
-149.83,1769236131.5625
-144.78,1769236131.578125
-127.55,1769236131.59375
-99.53,1769236131.609375
-64.51,1769236131.625
-27.53,1769236131.640625
6.61,1769236131.65625
34.72,1769236131.671875
55.71,1769236131.6875
70.25,1769236131.703125
79.87,1769236131.71875
86.01,1769236131.734375
89.5,1769236131.75
90.59,1769236131.765625
89.33,1769236131.78125
86.02,1769236131.796875
81.31,1769236131.8125
76.08,1769236131.828125
71.12,1769236131.84375
66.83,1769236131.859375
63.11,1769236131.875
59.52,1769236131.890625
55.63,1769236131.90625
51.26,1769236131.921875
46.7,1769236131.9375
42.53,1769236131.953125
39.23,1769236131.96875
36.84,1769236131.984375
34.77,1769236132.0
31.93,1769236132.015625
27.14,1769236132.03125
19.62,1769236132.046875
9.34,1769236132.0625
-2.93,1769236132.078125
-15.89,1769236132.09375
-28.15,1769236132.109375
-38.68,1769236132.125
-47.18,1769236132.140625
-54.02,1769236132.15625
-60.2,1769236132.171875
-66.98,1769236132.1875
-75.66,1769236132.203125
-87.25,1769236132.21875
-102.19,1769236132.234375
-119.86,1769236132.25
-138.22,1769236132.265625
-153.81,1769236132.28125
-162.29,1769236132.296875
-159.74,1769236132.3125
-144.07,1769236132.328125
-116.08,1769236132.34375
-79.41,1769236132.359375
-39.54,1769236132.375
-1.91,1769236132.390625
29.63,1769236132.40625
53.62,1769236132.421875
70.72,1769236132.4375
82.6,1769236132.453125
90.83,1769236132.46875
96.25,1769236132.484375
99.01,1769236132.5
99.04,1769236132.515625
96.63,1769236132.53125
92.58,1769236132.546875
87.94,1769236132.5625
83.58,1769236132.578125
79.83,1769236132.59375
76.38,1769236132.609375
72.57,1769236132.625
67.89,1769236132.640625
62.35,1769236132.65625
56.59,1769236132.671875
51.57,1769236132.6875
48.1,1769236132.703125
46.28,1769236132.71875
45.33,1769236132.734375
43.78,1769236132.75
40.02,1769236132.765625
32.92,1769236132.78125
22.3,1769236132.796875
9.02,1769236132.8125
-5.35,1769236132.828125
-19.11,1769236132.84375
-30.98,1769236132.859375
-40.54,1769236132.875
-48.2,1769236132.890625
-55.05,1769236132.90625
-62.5,1769236132.921875
-71.91,1769236132.9375
-84.34,1769236132.953125
-100.12,1769236132.96875
-118.47,1769236132.984375
-137.17,1769236133.0
-152.53,1769236133.015625
-160.16,1769236133.03125
-156.24,1769236133.046875
-138.98,1769236133.0625
-109.56,1769236133.078125
-71.97,1769236133.09375
-31.82,1769236133.109375
5.48,1769236133.125
36.27,1769236133.140625
59.23,1769236133.15625
75.01,1769236133.171875
85.2,1769236133.1875
91.29,1769236133.203125
94.17,1769236133.21875
94.32,1769236133.234375
92.15,1769236133.25
88.33,1769236133.265625
83.71,1769236133.28125
79.07,1769236133.296875
74.72,1769236133.3125
70.47,1769236133.328125
65.87,1769236133.34375
60.62,1769236133.359375
54.88,1769236133.375
49.36,1769236133.390625
45.0,1769236133.40625
42.4,1769236133.421875
41.44,1769236133.4375
41.1,1769236133.453125
39.74,1769236133.46875
35.75,1769236133.484375
28.19,1769236133.5
17.27,1769236133.515625
4.3,1769236133.53125
-8.85,1769236133.546875
-20.5,1769236133.5625
-29.81,1769236133.578125
-37.11,1769236133.59375
-43.68,1769236133.609375
-51.3,1769236133.625
-61.61,1769236133.640625
-75.42,1769236133.65625
-92.33,1769236133.671875
-110.3,1769236133.6875
-125.86,1769236133.703125
-134.73,1769236133.71875
-133.0,1769236133.734375
-118.54,1769236133.75
-91.99,1769236133.765625
-56.88,1769236133.78125
-18.68,1769236133.796875
16.89,1769236133.8125
45.6,1769236133.828125
65.6,1769236133.84375
77.39,1769236133.859375
82.79,1769236133.875
83.85,1769236133.890625
82.03,1769236133.90625
77.97,1769236133.921875
71.89,1769236133.9375
64.0,1769236133.953125
54.9,1769236133.96875
45.6,1769236133.984375
37.24,1769236134.0
30.76,1769236134.015625
26.63,1769236134.03125
24.72,1769236134.046875
24.42,1769236134.0625
24.84,1769236134.078125
25.08,1769236134.09375
24.39,1769236134.109375
22.25,1769236134.125
18.34,1769236134.140625
12.59,1769236134.15625
5.16,1769236134.171875
-3.52,1769236134.1875
-12.83,1769236134.203125
-22.16,1769236134.21875
-31.15,1769236134.234375
-40.01,1769236134.25
-49.48,1769236134.265625
-60.68,1769236134.28125
-74.54,1769236134.296875
-91.13,1769236134.3125
-109.04,1769236134.328125
-125.19,1769236134.34375
-135.42,1769236134.359375
-135.64,1769236134.375
-123.4,1769236134.390625
-98.91,1769236134.40625
-65.3,1769236134.421875
-27.68,1769236134.4375
8.51,1769236134.453125
39.11,1769236134.46875
62.09,1769236134.484375
77.51,1769236134.5
86.66,1769236134.515625
91.06,1769236134.53125
91.9,1769236134.546875
89.95,1769236134.5625
85.82,1769236134.578125
80.25,1769236134.59375
74.0,1769236134.609375
67.77,1769236134.625
61.89,1769236134.640625
56.34,1769236134.65625
50.95,1769236134.671875
45.69,1769236134.6875
40.78,1769236134.703125
36.69,1769236134.71875
33.85,1769236134.734375
32.26,1769236134.75
31.34,1769236134.765625
29.89,1769236134.78125
26.54,1769236134.796875
20.21,1769236134.8125
10.57,1769236134.828125
-1.67,1769236134.84375
-15.07,1769236134.859375
-27.95,1769236134.875
-39.04,1769236134.890625
-47.97,1769236134.90625
-55.45,1769236134.921875
-63.06,1769236134.9375
-72.72,1769236134.953125
-86.0,1769236134.96875
-103.29,1769236134.984375
-123.17,1769236135.0
-142.25,1769236135.015625
-155.73,1769236135.03125
-158.79,1769236135.046875
-148.25,1769236135.0625
-123.98,1769236135.078125
-89.14,1769236135.09375
-49.26,1769236135.109375
-10.38,1769236135.125
22.88,1769236135.140625
48.39,1769236135.15625
66.49,1769236135.171875
78.96,1769236135.1875
87.7,1769236135.203125
93.88,1769236135.21875
97.77,1769236135.234375
99.18,1769236135.25
98.09,1769236135.265625
94.95,1769236135.28125
90.68,1769236135.296875
86.24,1769236135.3125
82.26,1769236135.328125
78.76,1769236135.34375
75.27,1769236135.359375
71.16,1769236135.375
66.13,1769236135.390625
60.45,1769236135.40625
54.88,1769236135.421875
50.33,1769236135.4375
47.29,1769236135.453125
45.4,1769236135.46875
43.52,1769236135.484375
40.04,1769236135.5
33.61,1769236135.515625
23.74,1769236135.53125
11.05,1769236135.546875
-2.92,1769236135.5625
-16.37,1769236135.578125
-27.81,1769236135.59375
-36.67,1769236135.609375
-43.35,1769236135.625
-49.01,1769236135.640625
-55.25,1769236135.65625
-63.63,1769236135.671875
-75.34,1769236135.6875
-90.83,1769236135.703125
-109.37,1769236135.71875
-128.64,1769236135.734375
-144.84,1769236135.75
-153.43,1769236135.765625
-150.44,1769236135.78125
-134.09,1769236135.796875
-105.6,1769236135.8125
-69.12,1769236135.828125
-30.35,1769236135.84375
5.39,1769236135.859375
34.64,1769236135.875
56.47,1769236135.890625
71.87,1769236135.90625
82.67,1769236135.921875
90.4,1769236135.9375
95.85,1769236135.953125
99.16,1769236135.96875
100.3,1769236135.984375
99.43,1769236136.0
96.99,1769236136.015625
93.54,1769236136.03125
89.54,1769236136.046875
85.32,1769236136.0625
81.09,1769236136.078125
77.08,1769236136.09375
73.54,1769236136.109375
70.66,1769236136.125
68.49,1769236136.140625
66.78,1769236136.15625
65.05,1769236136.171875
62.69,1769236136.1875
59.23,1769236136.203125
54.41,1769236136.21875
48.26,1769236136.234375
41.08,1769236136.25
33.19,1769236136.265625
24.85,1769236136.28125
16.11,1769236136.296875
6.9,1769236136.3125
-2.84,1769236136.328125
-12.97,1769236136.34375
-23.13,1769236136.359375
-32.78,1769236136.375
-41.4,1769236136.390625
-48.74,1769236136.40625
-55.02,1769236136.421875
-60.99,1769236136.4375
-67.8,1769236136.453125
-76.76,1769236136.46875
-88.88,1769236136.484375
-104.4,1769236136.5
-122.17,1769236136.515625
-139.41,1769236136.53125
-151.99,1769236136.546875
-155.46,1769236136.5625
-146.57,1769236136.578125
-124.67,1769236136.59375
-92.25,1769236136.609375
-54.32,1769236136.625
-16.83,1769236136.640625
15.32,1769236136.65625
39.57,1769236136.671875
55.89,1769236136.6875
66.01,1769236136.703125
72.11,1769236136.71875
75.81,1769236136.734375
77.74,1769236136.75
77.86,1769236136.765625
76.04,1769236136.78125
72.47,1769236136.796875
67.79,1769236136.8125
62.84,1769236136.828125
58.37,1769236136.84375
54.73,1769236136.859375
51.87,1769236136.875
49.45,1769236136.890625
47.11,1769236136.90625
44.73,1769236136.921875
42.39,1769236136.9375
40.33,1769236136.953125
38.66,1769236136.96875
37.21,1769236136.984375
35.54,1769236137.0
33.0,1769236137.015625
29.04,1769236137.03125
23.31,1769236137.046875
15.85,1769236137.0625
7.09,1769236137.078125
-2.28,1769236137.09375
-11.39,1769236137.109375
-19.54,1769236137.125
-26.34,1769236137.140625
-31.85,1769236137.15625
-36.52,1769236137.171875
-41.11,1769236137.1875
-46.45,1769236137.203125
-53.27,1769236137.21875
-62.19,1769236137.234375
-73.5,1769236137.25
-86.91,1769236137.265625
-101.15,1769236137.28125
-113.71,1769236137.296875
-121.2,1769236137.3125
-120.2,1769236137.328125
-108.59,1769236137.34375
-86.57,1769236137.359375
-56.93,1769236137.375
-24.19,1769236137.390625
6.92,1769236137.40625
32.9,1769236137.421875
52.28,1769236137.4375
65.42,1769236137.453125
73.57,1769236137.46875
77.95,1769236137.484375
79.13,1769236137.5
77.22,1769236137.515625
72.37,1769236137.53125
65.26,1769236137.546875
57.16,1769236137.5625
49.65,1769236137.578125
43.98,1769236137.59375
40.6,1769236137.609375
39.1,1769236137.625
38.45,1769236137.640625
37.64,1769236137.65625
36.16,1769236137.671875
34.15,1769236137.6875
32.22,1769236137.703125
30.91,1769236137.71875
30.21,1769236137.734375
29.38,1769236137.75
27.22,1769236137.765625
22.59,1769236137.78125
15.06,1769236137.796875
5.12,1769236137.8125
-5.91,1769236137.828125
-16.36,1769236137.84375
-24.93,1769236137.859375
-31.15,1769236137.875
-35.51,1769236137.890625
-39.28,1769236137.90625
-44.09,1769236137.921875
-51.38,1769236137.9375
-62.02,1769236137.953125
-75.94,1769236137.96875
-91.82,1769236137.984375
-107.12,1769236138.0
-118.25,1769236138.015625
-121.54,1769236138.03125
-114.27,1769236138.046875
-95.91,1769236138.0625
-68.48,1769236138.078125
-36.17,1769236138.09375
-3.92,1769236138.109375
24.1,1769236138.125
45.62,1769236138.140625
60.53,1769236138.15625
70.07,1769236138.171875
75.8,1769236138.1875
78.73,1769236138.203125
79.09,1769236138.21875
76.76,1769236138.234375
71.87,1769236138.25
65.14,1769236138.265625
57.87,1769236138.28125
51.46,1769236138.296875
46.88,1769236138.3125
44.33,1769236138.328125
43.2,1769236138.34375
42.47,1769236138.359375
41.16,1769236138.375
38.75,1769236138.390625
35.31,1769236138.40625
31.4,1769236138.421875
27.63,1769236138.4375
24.32,1769236138.453125
21.28,1769236138.46875
17.83,1769236138.484375
13.05,1769236138.5
6.2,1769236138.515625
-2.89,1769236138.53125
-13.7,1769236138.546875
-25.08,1769236138.5625
-35.7,1769236138.578125
-44.49,1769236138.59375
-51.08,1769236138.609375
-55.95,1769236138.625
-60.26,1769236138.640625
-65.47,1769236138.65625
-72.97,1769236138.671875
-83.68,1769236138.6875
-97.77,1769236138.703125
-114.37,1769236138.71875
-131.22,1769236138.734375
-144.85,1769236138.75
-151.15,1769236138.765625
-146.59,1769236138.78125
-129.58,1769236138.796875
-101.33,1769236138.8125
-65.82,1769236138.828125
-28.49,1769236138.84375
5.46,1769236138.859375
32.67,1769236138.875
52.21,1769236138.890625
65.16,1769236138.90625
73.45,1769236138.921875
78.81,1769236138.9375
82.2,1769236138.953125
83.88,1769236138.96875
83.88,1769236138.984375
82.33,1769236139.0
79.63,1769236139.015625
76.25,1769236139.03125
72.6,1769236139.046875
68.89,1769236139.0625
65.22,1769236139.078125
61.63,1769236139.09375
58.18,1769236139.109375
54.9,1769236139.125
51.79,1769236139.140625
48.72,1769236139.15625
45.55,1769236139.171875
42.17,1769236139.1875
38.56,1769236139.203125
34.69,1769236139.21875
30.46,1769236139.234375
25.54,1769236139.25
19.49,1769236139.265625
11.89,1769236139.28125
2.64,1769236139.296875
-7.9,1769236139.3125
-18.93,1769236139.328125
-29.47,1769236139.34375
-38.73,1769236139.359375
-46.37,1769236139.375
-52.65,1769236139.390625
-58.31,1769236139.40625
-64.37,1769236139.421875
-71.91,1769236139.4375
-81.85,1769236139.453125
-94.62,1769236139.46875
-109.78,1769236139.484375
-125.7,1769236139.5
-139.32,1769236139.515625
-146.72,1769236139.53125
-144.12,1769236139.546875
-129.29,1769236139.5625
-102.69,1769236139.578125
-67.62,1769236139.59375
-29.38,1769236139.609375
6.43,1769236139.625
35.68,1769236139.640625
56.63,1769236139.65625
69.92,1769236139.671875
77.6,1769236139.6875
81.9,1769236139.703125
84.35,1769236139.71875
85.53,1769236139.734375
85.31,1769236139.75
83.47,1769236139.765625
80.0,1769236139.78125
75.31,1769236139.796875
70.06,1769236139.8125
64.95,1769236139.828125
60.53,1769236139.84375
56.99,1769236139.859375
54.23,1769236139.875
51.89,1769236139.890625
49.58,1769236139.90625
47.01,1769236139.921875
44.09,1769236139.9375
40.85,1769236139.953125
37.34,1769236139.96875
33.45,1769236139.984375
28.9,1769236140.0
23.28,1769236140.015625
16.26,1769236140.03125
7.79,1769236140.046875
-1.85,1769236140.0625
-12.06,1769236140.078125
-22.14,1769236140.09375
-31.49,1769236140.109375
-39.71,1769236140.125
-46.76,1769236140.140625
-52.83,1769236140.15625
-58.4,1769236140.171875
-64.17,1769236140.1875
-71.02,1769236140.203125
-79.92,1769236140.21875
-91.59,1769236140.234375
-106.05,1769236140.25
-122.05,1769236140.265625
-136.81,1769236140.28125
-146.36,1769236140.296875
-146.62,1769236140.3125
-134.85,1769236140.328125
-110.91,1769236140.34375
-77.64,1769236140.359375
-40.06,1769236140.375
-3.74,1769236140.390625
26.97,1769236140.40625
50.01,1769236140.421875
65.63,1769236140.4375
75.46,1769236140.453125
81.29,1769236140.46875
84.28,1769236140.484375
84.75,1769236140.5
82.67,1769236140.515625
78.25,1769236140.53125
72.21,1769236140.546875
65.68,1769236140.5625
59.79,1769236140.578125
55.3,1769236140.59375
52.24,1769236140.609375
50.11,1769236140.625
48.17,1769236140.640625
45.84,1769236140.65625
42.97,1769236140.671875
39.88,1769236140.6875
37.11,1769236140.703125
35.06,1769236140.71875
33.64,1769236140.734375
32.17,1769236140.75
29.57,1769236140.765625
24.78,1769236140.78125
17.22,1769236140.796875
7.16,1769236140.8125
-4.37,1769236140.828125
-15.87,1769236140.84375
-25.92,1769236140.859375
-33.71,1769236140.875
-39.28,1769236140.890625
-43.47,1769236140.90625
-47.56,1769236140.921875
-52.94,1769236140.9375
-60.75,1769236140.953125
-71.68,1769236140.96875
-85.66,1769236140.984375
-101.6,1769236141.0
-117.16,1769236141.015625
-128.9,1769236141.03125
-133.0,1769236141.046875
-126.41,1769236141.0625
-108.11,1769236141.078125
-79.71,1769236141.09375
-45.19,1769236141.109375
-9.63,1769236141.125
22.38,1769236141.140625
47.96,1769236141.15625
66.32,1769236141.171875
78.22,1769236141.1875
84.93,1769236141.203125
87.54,1769236141.21875
86.6,1769236141.234375
82.48,1769236141.25
75.83,1769236141.265625
67.81,1769236141.28125
59.88,1769236141.296875
53.41,1769236141.3125
49.09,1769236141.328125
46.8,1769236141.34375
45.72,1769236141.359375
44.76,1769236141.375
43.1,1769236141.390625
40.51,1769236141.40625
37.4,1769236141.421875
34.46,1769236141.4375
32.22,1769236141.453125
30.55,1769236141.46875
28.56,1769236141.484375
24.94,1769236141.5
18.47,1769236141.515625
8.71,1769236141.53125
-3.7,1769236141.546875
-17.24,1769236141.5625
-30.06,1769236141.578125
-40.72,1769236141.59375
-48.74,1769236141.609375
-54.72,1769236141.625
-60.05,1769236141.640625
-66.47,1769236141.65625
-75.55,1769236141.671875
-88.27,1769236141.6875
-104.56,1769236141.703125
-122.93,1769236141.71875
-140.31,1769236141.734375
-152.43,1769236141.75
-154.9,1769236141.765625
-144.63,1769236141.78125
-121.19,1769236141.796875
-87.22,1769236141.8125
-47.8,1769236141.828125
-8.78,1769236141.84375
25.01,1769236141.859375
51.04,1769236141.875
69.13,1769236141.890625
80.72,1769236141.90625
87.72,1769236141.921875
91.56,1769236141.9375
92.96,1769236141.953125
92.17,1769236141.96875
89.36,1769236141.984375
84.97,1769236142.0
79.66,1769236142.015625
74.19,1769236142.03125
69.15,1769236142.046875
64.86,1769236142.0625
61.4,1769236142.078125
58.57,1769236142.09375
56.12,1769236142.109375
53.77,1769236142.125
51.34,1769236142.140625
48.77,1769236142.15625
46.09,1769236142.171875
43.31,1769236142.1875
40.29,1769236142.203125
36.68,1769236142.21875
31.91,1769236142.234375
25.4,1769236142.25
16.78,1769236142.265625
6.14,1769236142.28125
-5.9,1769236142.296875
-18.34,1769236142.3125
-30.08,1769236142.328125
-40.3,1769236142.34375
-48.72,1769236142.359375
-55.7,1769236142.375
-62.11,1769236142.390625
-69.08,1769236142.40625
-77.79,1769236142.421875
-89.15,1769236142.4375
-103.66,1769236142.453125
-120.91,1769236142.46875
-139.23,1769236142.484375
-155.47,1769236142.5
-165.38,1769236142.515625
-164.72,1769236142.53125
-150.68,1769236142.546875
-123.26,1769236142.5625
-85.58,1769236142.578125
-43.12,1769236142.59375
-1.96,1769236142.609375
33.04,1769236142.625
59.45,1769236142.640625
77.32,1769236142.65625
88.38,1769236142.671875
94.77,1769236142.6875
98.21,1769236142.703125
99.68,1769236142.71875
99.57,1769236142.734375
98.09,1769236142.75
95.44,1769236142.765625
91.85,1769236142.78125
87.5,1769236142.796875
82.56,1769236142.8125
77.16,1769236142.828125
71.56,1769236142.84375
66.12,1769236142.859375
61.29,1769236142.875
57.37,1769236142.890625
54.43,1769236142.90625
52.16,1769236142.921875
49.97,1769236142.9375
47.15,1769236142.953125
43.11,1769236142.96875
37.59,1769236142.984375
30.69,1769236143.0
22.78,1769236143.015625
14.31,1769236143.03125
5.56,1769236143.046875
-3.44,1769236143.0625
-12.84,1769236143.078125
-22.75,1769236143.09375
-32.95,1769236143.109375
-42.81,1769236143.125
-51.44,1769236143.140625
-58.01,1769236143.15625
-62.26,1769236143.171875
-64.73,1769236143.1875
-66.78,1769236143.203125
-70.29,1769236143.21875
-77.14,1769236143.234375
-88.61,1769236143.25
-104.68,1769236143.265625
-123.59,1769236143.28125
-141.69,1769236143.296875
-154.08,1769236143.3125
-155.83,1769236143.328125
-143.64,1769236143.34375
-117.24,1769236143.359375
-79.81,1769236143.375
-37.14,1769236143.390625
4.22,1769236143.40625
38.99,1769236143.421875
64.5,1769236143.4375
80.8,1769236143.453125
89.71,1769236143.46875
93.49,1769236143.484375
93.82,1769236143.5
91.5,1769236143.515625
86.88,1769236143.53125
80.38,1769236143.546875
72.8,1769236143.5625
65.28,1769236143.578125
58.84,1769236143.59375
54.04,1769236143.609375
50.78,1769236143.625
48.46,1769236143.640625
46.38,1769236143.65625
44.09,1769236143.671875
41.66,1769236143.6875
39.43,1769236143.703125
37.91,1769236143.71875
37.23,1769236143.734375
37.01,1769236143.75
36.36,1769236143.765625
34.06,1769236143.78125
29.08,1769236143.796875
20.93,1769236143.8125
9.99,1769236143.828125
-2.55,1769236143.84375
-15.06,1769236143.859375
-25.95,1769236143.875
-34.37,1769236143.890625
-40.48,1769236143.90625
-45.39,1769236143.921875
-50.81,1769236143.9375
-58.39,1769236143.953125
-69.24,1769236143.96875
-83.53,1769236143.984375
-100.27,1769236144.0
-117.24,1769236144.015625
-131.18,1769236144.03125
-138.27,1769236144.046875
-135.14,1769236144.0625
-119.95,1769236144.078125
-93.32,1769236144.09375
-58.42,1769236144.109375
-20.21,1769236144.125
16.09,1769236144.140625
46.52,1769236144.15625
69.17,1769236144.171875
84.17,1769236144.1875
92.84,1769236144.203125
96.68,1769236144.21875
96.78,1769236144.234375
93.71,1769236144.25
87.97,1769236144.265625
80.31,1769236144.28125
71.89,1769236144.296875
64.02,1769236144.3125
57.69,1769236144.328125
53.28,1769236144.34375
50.45,1769236144.359375
48.47,1769236144.375
46.62,1769236144.390625
44.58,1769236144.40625
42.53,1769236144.421875
40.87,1769236144.4375
39.77,1769236144.453125
38.76,1769236144.46875
36.75,1769236144.484375
32.35,1769236144.5
24.52,1769236144.515625
13.11,1769236144.53125
-0.87,1769236144.546875
-15.62,1769236144.5625
-29.15,1769236144.578125
-40.11,1769236144.59375
-48.28,1769236144.609375
-54.66,1769236144.625
-61.12,1769236144.640625
-69.72,1769236144.65625
-82.02,1769236144.671875
-98.33,1769236144.6875
-117.24,1769236144.703125
-135.56,1769236144.71875
-148.79,1769236144.734375
-152.26,1769236144.75
-142.65,1769236144.765625
-119.37,1769236144.78125
-84.98,1769236144.796875
-44.62,1769236144.8125
-4.32,1769236144.828125
30.86,1769236144.84375
58.17,1769236144.859375
77.36,1769236144.875
89.88,1769236144.890625
97.64,1769236144.90625
101.97,1769236144.921875
103.4,1769236144.9375
101.95,1769236144.953125
97.76,1769236144.96875
91.52,1769236144.984375
84.37,1769236145.0
77.52,1769236145.015625
71.9,1769236145.03125
67.79,1769236145.046875
64.89,1769236145.0625
62.57,1769236145.078125
60.24,1769236145.09375
57.53,1769236145.109375
54.48,1769236145.125
51.36,1769236145.140625
48.48,1769236145.15625
45.96,1769236145.171875
43.56,1769236145.1875
40.58,1769236145.203125
36.11,1769236145.21875
29.32,1769236145.234375
19.87,1769236145.25
8.17,1769236145.265625
-4.65,1769236145.28125
-17.13,1769236145.296875
-27.95,1769236145.3125
-36.57,1769236145.328125
-43.38,1769236145.34375
-49.58,1769236145.359375
-56.68,1769236145.375
-66.14,1769236145.390625
-78.89,1769236145.40625
-95.17,1769236145.421875
-114.24,1769236145.4375
-134.12,1769236145.453125
-151.46,1769236145.46875
-162.04,1769236145.484375
-161.83,1769236145.5
-148.43,1769236145.515625
-122.21,1769236145.53125
-86.63,1769236145.546875
-47.16,1769236145.5625
-9.58,1769236145.578125
21.78,1769236145.59375
45.0,1769236145.609375
60.45,1769236145.625
69.78,1769236145.640625
74.9,1769236145.65625
77.17,1769236145.671875
77.34,1769236145.6875
75.84,1769236145.703125
73.03,1769236145.71875
69.37,1769236145.734375
65.32,1769236145.75
61.19,1769236145.765625
57.1,1769236145.78125
53.04,1769236145.796875
49.04,1769236145.8125
45.3,1769236145.828125
42.23,1769236145.84375
40.33,1769236145.859375
39.89,1769236145.875
40.86,1769236145.890625
42.7,1769236145.90625
44.53,1769236145.921875
45.43,1769236145.9375
44.65,1769236145.953125
41.71,1769236145.96875
36.34,1769236145.984375
28.41,1769236146.0
17.8,1769236146.015625
4.67,1769236146.03125
-10.41,1769236146.046875
-26.23,1769236146.0625
-41.14,1769236146.078125
-53.46,1769236146.09375
-62.05,1769236146.109375
-66.78,1769236146.125
-68.66,1769236146.140625
-69.61,1769236146.15625
-71.96,1769236146.171875
-77.82,1769236146.1875
-88.32,1769236146.203125
-103.07,1769236146.21875
-119.78,1769236146.234375
-134.47,1769236146.25
-142.34,1769236146.265625
-139.27,1769236146.28125
-123.29,1769236146.296875
-95.51,1769236146.3125
-59.86,1769236146.328125
-21.82,1769236146.34375
13.36,1769236146.359375
42.17,1769236146.375
63.36,1769236146.390625
77.49,1769236146.40625
85.99,1769236146.421875
90.26,1769236146.4375
91.32,1769236146.453125
89.94,1769236146.46875
86.95,1769236146.484375
83.34,1769236146.5
80.03,1769236146.515625
77.54,1769236146.53125
75.72,1769236146.546875
73.86,1769236146.5625
71.07,1769236146.578125
66.83,1769236146.59375
61.35,1769236146.609375
55.61,1769236146.625
50.99,1769236146.640625
48.63,1769236146.65625
48.9,1769236146.671875
51.08,1769236146.6875
53.53,1769236146.703125
54.3,1769236146.71875
51.84,1769236146.734375
45.62,1769236146.75
36.32,1769236146.765625
25.53,1769236146.78125
15.08,1769236146.796875
6.36,1769236146.8125
-0.21,1769236146.828125
-5.24,1769236146.84375
-10.12,1769236146.859375
-16.47,1769236146.875
-25.58,1769236146.890625
-37.95,1769236146.90625
-52.73,1769236146.921875
-67.58,1769236146.9375
-78.83,1769236146.953125
-82.3,1769236146.96875
-74.74,1769236146.984375
-55.24,1769236147.0
-26.09,1769236147.015625
7.62,1769236147.03125
39.58,1769236147.046875
64.37,1769236147.0625
79.04,1769236147.078125
83.6,1769236147.09375
80.22,1769236147.109375
71.81,1769236147.125
60.78,1769236147.140625
48.58,1769236147.15625
35.95,1769236147.171875
23.52,1769236147.1875
11.99,1769236147.203125
2.06,1769236147.21875
-6.0,1769236147.234375
-12.5,1769236147.25
-18.22,1769236147.265625
-23.89,1769236147.28125
-29.58,1769236147.296875
-34.49,1769236147.3125
-37.16,1769236147.328125
-36.07,1769236147.34375
-30.53,1769236147.359375
-21.3,1769236147.375
-10.58,1769236147.390625
-1.48,1769236147.40625
3.09,1769236147.421875
1.46,1769236147.4375
-6.28,1769236147.453125
-18.35,1769236147.46875
-32.21,1769236147.484375
-45.46,1769236147.5
-56.68,1769236147.515625
-65.67,1769236147.53125
-73.27,1769236147.546875
-80.84,1769236147.5625
-89.74,1769236147.578125
-100.77,1769236147.59375
-113.65,1769236147.609375
-126.71,1769236147.625
-136.85,1769236147.640625
-140.23,1769236147.65625
-133.38,1769236147.671875
-114.62,1769236147.6875
-85.04,1769236147.703125
-48.44,1769236147.71875
-10.24,1769236147.734375
24.22,1769236147.75
51.19,1769236147.765625
69.34,1769236147.78125
79.45,1769236147.796875
83.49,1769236147.8125
83.56,1769236147.828125
81.23,1769236147.84375
77.45,1769236147.859375
72.82,1769236147.875
67.83,1769236147.890625
62.92,1769236147.90625
58.42,1769236147.921875
54.39,1769236147.9375
50.63,1769236147.953125
46.86,1769236147.96875
42.91,1769236147.984375
38.95,1769236148.0
35.32,1769236148.015625
32.38,1769236148.03125
30.18,1769236148.046875
28.35,1769236148.0625
26.16,1769236148.078125
22.74,1769236148.09375
17.4,1769236148.109375
9.88,1769236148.125
0.41,1769236148.140625
-10.43,1769236148.15625
-21.94,1769236148.171875
-33.6,1769236148.1875
-45.43,1769236148.203125
-57.89,1769236148.21875
-71.61,1769236148.234375
-86.61,1769236148.25
-101.69,1769236148.265625
-114.14,1769236148.28125
-120.27,1769236148.296875
-116.63,1769236148.3125
-101.49,1769236148.328125
-75.84,1769236148.34375
-43.31,1769236148.359375
-9.12,1769236148.375
21.67,1769236148.390625
45.69,1769236148.40625
61.9,1769236148.421875
71.25,1769236148.4375
75.63,1769236148.453125
76.76,1769236148.46875
75.59,1769236148.484375
72.3,1769236148.5
66.82,1769236148.515625
59.35,1769236148.53125
50.64,1769236148.546875
41.88,1769236148.5625
34.35,1769236148.578125
28.97,1769236148.59375
25.95,1769236148.609375
24.75,1769236148.625
24.34,1769236148.640625
23.59,1769236148.65625
21.65,1769236148.671875
18.25,1769236148.6875
13.73,1769236148.703125
8.74,1769236148.71875
3.95,1769236148.734375
-0.38,1769236148.75
-4.44,1769236148.765625
-8.89,1769236148.78125
-14.51,1769236148.796875
-22.0,1769236148.8125
-31.86,1769236148.828125
-44.29,1769236148.84375
-59.11,1769236148.859375
-75.44,1769236148.875
-91.42,1769236148.890625
-104.14,1769236148.90625
-110.17,1769236148.921875
-106.55,1769236148.9375
-92.06,1769236148.953125
-67.95,1769236148.96875
-37.75,1769236148.984375
-6.28,1769236149.0
22.02,1769236149.015625
44.33,1769236149.03125
59.96,1769236149.046875
69.93,1769236149.0625
75.94,1769236149.078125
79.47,1769236149.09375
81.19,1769236149.109375
81.05,1769236149.125
78.69,1769236149.140625
73.93,1769236149.15625
67.05,1769236149.171875
58.81,1769236149.1875
50.26,1769236149.203125
42.43,1769236149.21875
36.1,1769236149.234375
31.52,1769236149.25
28.45,1769236149.265625
26.2,1769236149.28125
23.96,1769236149.296875
20.99,1769236149.3125
16.87,1769236149.328125
11.54,1769236149.34375
5.21,1769236149.359375
-1.78,1769236149.375
-9.13,1769236149.390625
-16.66,1769236149.40625
-24.4,1769236149.421875
-32.61,1769236149.4375
-41.74,1769236149.453125
-52.46,1769236149.46875
-65.33,1769236149.484375
-80.45,1769236149.5
-96.79,1769236149.515625
-111.91,1769236149.53125
-122.16,1769236149.546875
-123.73,1769236149.5625
-114.02,1769236149.578125
-92.81,1769236149.59375
-62.72,1769236149.609375
-28.37,1769236149.625
4.97,1769236149.640625
33.09,1769236149.65625
53.81,1769236149.671875
67.11,1769236149.6875
74.43,1769236149.703125
77.65,1769236149.71875
78.33,1769236149.734375
77.36,1769236149.75
75.14,1769236149.765625
71.88,1769236149.78125
67.8,1769236149.796875
63.17,1769236149.8125
58.21,1769236149.828125
53.05,1769236149.84375
47.65,1769236149.859375
42.0,1769236149.875
36.21,1769236149.890625
30.63,1769236149.90625
25.8,1769236149.921875
22.13,1769236149.9375
19.69,1769236149.953125
17.94,1769236149.96875
15.81,1769236149.984375
12.07,1769236150.0
5.83,1769236150.015625
-3.06,1769236150.03125
-13.83,1769236150.046875
-25.05,1769236150.0625
-35.22,1769236150.078125
-43.37,1769236150.09375
-49.56,1769236150.109375
-54.93,1769236150.125
-61.31,1769236150.140625
-70.51,1769236150.15625
-83.44,1769236150.171875
-99.33,1769236150.1875
-115.5,1769236150.203125
-127.81,1769236150.21875
-131.88,1769236150.234375
-124.55,1769236150.25
-105.16,1769236150.265625
-75.87,1769236150.28125
-41.06,1769236150.296875
-5.8,1769236150.3125
25.62,1769236150.328125
50.77,1769236150.34375
69.14,1769236150.359375
81.56,1769236150.375
89.25,1769236150.390625
93.25,1769236150.40625
94.17,1769236150.421875
92.46,1769236150.4375
88.69,1769236150.453125
83.64,1769236150.46875
78.24,1769236150.484375
73.31,1769236150.5
69.31,1769236150.515625
66.28,1769236150.53125
63.83,1769236150.546875
61.37,1769236150.5625
58.36,1769236150.578125
54.57,1769236150.59375
50.2,1769236150.609375
45.7,1769236150.625
41.56,1769236150.640625
37.93,1769236150.65625
34.45,1769236150.671875
30.28,1769236150.6875
24.41,1769236150.703125
16.1,1769236150.71875
5.26,1769236150.734375
-7.43,1769236150.75
-20.7,1769236150.765625
-33.08,1769236150.78125
-43.44,1769236150.796875
-51.35,1769236150.8125
-57.2,1769236150.828125
-62.06,1769236150.84375
-67.38,1769236150.859375
-74.59,1769236150.875
-84.72,1769236150.890625
-97.97,1769236150.90625
-113.35,1769236150.921875
-128.51,1769236150.9375
-139.87,1769236150.953125
-143.53,1769236150.96875
-136.37,1769236150.984375
-117.34,1769236151.0
-88.07,1769236151.015625
-52.57,1769236151.03125
-16.03,1769236151.046875
16.79,1769236151.0625
42.81,1769236151.078125
61.16,1769236151.09375
72.78,1769236151.109375
79.46,1769236151.125
82.96,1769236151.140625
84.39,1769236151.15625
84.28,1769236151.171875
82.75,1769236151.1875
79.96,1769236151.203125
76.23,1769236151.21875
72.02,1769236151.234375
67.83,1769236151.25
63.96,1769236151.265625
60.5,1769236151.28125
57.32,1769236151.296875
54.26,1769236151.3125
51.15,1769236151.328125
47.98,1769236151.34375
44.78,1769236151.359375
41.57,1769236151.375
38.3,1769236151.390625
34.78,1769236151.40625
30.78,1769236151.421875
25.99,1769236151.4375
20.23,1769236151.453125
13.33,1769236151.46875
5.32,1769236151.484375
-3.58,1769236151.5
-12.89,1769236151.515625
-22.03,1769236151.53125
-30.41,1769236151.546875
-37.66,1769236151.5625
-43.77,1769236151.578125
-49.03,1769236151.59375
-54.06,1769236151.609375
-59.6,1769236151.625
-66.46,1769236151.640625
-75.42,1769236151.65625
-86.9,1769236151.671875
-100.57,1769236151.6875
-114.79,1769236151.703125
-126.5,1769236151.71875
-131.77,1769236151.734375
-127.04,1769236151.75
-110.54,1769236151.765625
-83.31,1769236151.78125
-49.11,1769236151.796875
-13.23,1769236151.8125
19.2,1769236151.828125
44.83,1769236151.84375
62.64,1769236151.859375
73.63,1769236151.875
79.63,1769236151.890625
82.29,1769236151.90625
82.41,1769236151.921875
80.1,1769236151.9375
75.39,1769236151.953125
68.7,1769236151.96875
61.08,1769236151.984375
53.83,1769236152.0
48.11,1769236152.015625
44.4,1769236152.03125
42.41,1769236152.046875
41.35,1769236152.0625
40.36,1769236152.078125
38.94,1769236152.09375
37.11,1769236152.109375
35.27,1769236152.125
33.8,1769236152.140625
32.81,1769236152.15625
31.94,1769236152.171875
30.54,1769236152.1875
27.84,1769236152.203125
23.24,1769236152.21875
16.51,1769236152.234375
7.87,1769236152.25
-2.0,1769236152.265625
-12.16,1769236152.28125
-21.62,1769236152.296875
-29.6,1769236152.3125
-35.84,1769236152.328125
-40.6,1769236152.34375
-44.68,1769236152.359375
-49.14,1769236152.375
-55.07,1769236152.390625
-63.33,1769236152.40625
-74.24,1769236152.421875
-87.32,1769236152.4375
-101.01,1769236152.453125
-112.63,1769236152.46875
-118.82,1769236152.484375
-116.42,1769236152.5
-103.65,1769236152.515625
-80.96,1769236152.53125
-51.17,1769236152.546875
-18.66,1769236152.5625
12.05,1769236152.578125
37.6,1769236152.59375
56.44,1769236152.609375
68.65,1769236152.625
75.17,1769236152.640625
77.05,1769236152.65625
75.05,1769236152.671875
69.77,1769236152.6875
62.06,1769236152.703125
53.13,1769236152.71875
44.45,1769236152.734375
37.26,1769236152.75
32.22,1769236152.765625
29.21,1769236152.78125
27.52,1769236152.796875
26.29,1769236152.8125
24.95,1769236152.828125
23.41,1769236152.84375
22.04,1769236152.859375
21.29,1769236152.875
21.33,1769236152.890625
21.71,1769236152.90625
21.5,1769236152.921875
19.55,1769236152.9375
15.05,1769236152.953125
7.99,1769236152.96875
-0.84,1769236152.984375
-10.09,1769236153.0
-18.45,1769236153.015625
-25.16,1769236153.03125
-30.27,1769236153.046875
-34.62,1769236153.0625
-39.45,1769236153.078125
-46.02,1769236153.09375
-55.16,1769236153.109375
-66.93,1769236153.125
-80.36,1769236153.140625
-93.26,1769236153.15625
-102.53,1769236153.171875
-104.89,1769236153.1875
-97.95,1769236153.203125
-81.13,1769236153.21875
-56.2,1769236153.234375
-26.82,1769236153.25
2.58,1769236153.265625
28.15,1769236153.28125
47.63,1769236153.296875
60.56,1769236153.3125
67.78,1769236153.328125
70.57,1769236153.34375
69.92,1769236153.359375
66.29,1769236153.375
59.91,1769236153.390625
51.14,1769236153.40625
40.84,1769236153.421875
30.35,1769236153.4375
21.13,1769236153.453125
14.29,1769236153.46875
10.26,1769236153.484375
8.72,1769236153.5
8.75,1769236153.515625
9.26,1769236153.53125
9.3,1769236153.546875
8.3,1769236153.5625
6.01,1769236153.578125
2.47,1769236153.59375
-2.21,1769236153.609375
-7.91,1769236153.625
-14.48,1769236153.640625
-21.75,1769236153.65625
-29.53,1769236153.671875
-37.73,1769236153.6875
-46.41,1769236153.703125
-55.87,1769236153.71875
-66.44,1769236153.734375
-78.26,1769236153.75
-90.72,1769236153.765625
-102.21,1769236153.78125
-110.17,1769236153.796875
-111.63,1769236153.8125
-104.25,1769236153.828125
-87.26,1769236153.84375
-62.01,1769236153.859375
-31.72,1769236153.875
-0.63,1769236153.890625
27.25,1769236153.90625
49.12,1769236153.921875
63.91,1769236153.9375
72.11,1769236153.953125
75.13,1769236153.96875
74.57,1769236153.984375
71.71,1769236154.0
67.36,1769236154.015625
61.86,1769236154.03125
55.45,1769236154.046875
48.37,1769236154.0625
41.05,1769236154.078125
33.99,1769236154.09375
27.74,1769236154.109375
22.75,1769236154.125
19.22,1769236154.140625
17.11,1769236154.15625
16.08,1769236154.171875
15.53,1769236154.1875
14.73,1769236154.203125
12.93,1769236154.21875
9.6,1769236154.234375
4.53,1769236154.25
-2.08,1769236154.265625
-9.82,1769236154.28125
-18.18,1769236154.296875
-26.78,1769236154.3125
-35.45,1769236154.328125
-44.35,1769236154.34375
-53.86,1769236154.359375
-64.54,1769236154.375
-76.92,1769236154.390625
-90.94,1769236154.40625
-105.54,1769236154.421875
-118.32,1769236154.4375
-125.92,1769236154.453125
-124.95,1769236154.46875
-113.32,1769236154.484375
-91.34,1769236154.5
-61.83,1769236154.515625
-29.37,1769236154.53125
1.3,1769236154.546875
26.69,1769236154.5625
45.38,1769236154.578125
57.76,1769236154.59375
65.22,1769236154.609375
69.18,1769236154.625
70.56,1769236154.640625
69.8,1769236154.65625
67.25,1769236154.671875
63.44,1769236154.6875
59.12,1769236154.703125
54.98,1769236154.71875
51.38,1769236154.734375
48.17,1769236154.75
44.88,1769236154.765625
41.05,1769236154.78125
36.6,1769236154.796875
31.97,1769236154.8125
27.93,1769236154.828125
25.16,1769236154.84375
23.74,1769236154.859375
22.95,1769236154.875
21.41,1769236154.890625
17.66,1769236154.90625
10.8,1769236154.921875
1.01,1769236154.9375
-10.53,1769236154.953125
-22.1,1769236154.96875
-32.16,1769236154.984375
-40.05,1769236155.0
-46.16,1769236155.015625
-51.74,1769236155.03125
-58.4,1769236155.046875
-67.49,1769236155.0625
-79.7,1769236155.078125
-94.58,1769236155.09375
-110.42,1769236155.109375
-124.27,1769236155.125
-132.47,1769236155.140625
-131.67,1769236155.15625
-119.9,1769236155.171875
-97.58,1769236155.1875
-67.52,1769236155.203125
-34.24,1769236155.21875
-2.41,1769236155.234375
24.42,1769236155.25
44.73,1769236155.265625
58.86,1769236155.28125
68.18,1769236155.296875
74.15,1769236155.3125
77.62,1769236155.328125
78.88,1769236155.34375
77.96,1769236155.359375
75.11,1769236155.375
70.98,1769236155.390625
66.49,1769236155.40625
62.45,1769236155.421875
59.24,1769236155.4375
56.7,1769236155.453125
54.31,1769236155.46875
51.55,1769236155.484375
48.24,1769236155.5
44.66,1769236155.515625
41.4,1769236155.53125
39.03,1769236155.546875
37.68,1769236155.5625
36.82,1769236155.578125
35.34,1769236155.59375
31.95,1769236155.609375
25.7,1769236155.625
16.44,1769236155.640625
4.93,1769236155.65625
-7.31,1769236155.671875
-18.65,1769236155.6875
-27.88,1769236155.703125
-34.7,1769236155.71875
-39.72,1769236155.734375
-44.29,1769236155.75
-49.93,1769236155.765625
-57.98,1769236155.78125
-69.2,1769236155.796875
-83.56,1769236155.8125
-100.01,1769236155.828125
-116.31,1769236155.84375
-129.21,1769236155.859375
-135.14,1769236155.875
-131.17,1769236155.890625
-116.15,1769236155.90625
-91.33,1769236155.921875
-60.16,1769236155.9375
-27.16,1769236155.953125
3.39,1769236155.96875
28.73,1769236155.984375
47.97,1769236156.0
61.65,1769236156.015625
70.94,1769236156.03125
76.78,1769236156.046875
79.6,1769236156.0625
79.61,1769236156.078125
77.1,1769236156.09375
72.89,1769236156.109375
68.16,1769236156.125
64.04,1769236156.140625
61.19,1769236156.15625
59.54,1769236156.171875
58.4,1769236156.1875
56.96,1769236156.203125
54.76,1769236156.21875
51.96,1769236156.234375
49.21,1769236156.25
47.25,1769236156.265625
46.31,1769236156.28125
45.87,1769236156.296875
44.75,1769236156.3125
41.61,1769236156.328125
35.58,1769236156.34375
26.67,1769236156.359375
15.77,1769236156.375
4.34,1769236156.390625
-6.26,1769236156.40625
-15.21,1769236156.421875
-22.45,1769236156.4375
-28.65,1769236156.453125
-34.88,1769236156.46875
-42.27,1769236156.484375
-51.78,1769236156.5
-63.89,1769236156.515625
-78.28,1769236156.53125
-93.49,1769236156.546875
-106.91,1769236156.5625
-115.1,1769236156.578125
-114.79,1769236156.59375
-104.06,1769236156.609375
-83.18,1769236156.625
-54.78,1769236156.640625
-23.05,1769236156.65625
7.61,1769236156.671875
33.82,1769236156.6875
53.97,1769236156.703125
68.02,1769236156.71875
76.81,1769236156.734375
81.3,1769236156.75
82.1,1769236156.765625
79.57,1769236156.78125
74.2,1769236156.796875
66.85,1769236156.8125
58.8,1769236156.828125
51.4,1769236156.84375
45.61,1769236156.859375
41.77,1769236156.875
39.59,1769236156.890625
38.4,1769236156.90625
37.6,1769236156.921875
36.9,1769236156.9375
36.26,1769236156.953125
35.7,1769236156.96875
34.97,1769236156.984375
33.44,1769236157.0
30.19,1769236157.015625
24.48,1769236157.03125
16.11,1769236157.046875
5.65,1769236157.0625
-5.69,1769236157.078125
-16.54,1769236157.09375
-25.9,1769236157.109375
-33.53,1769236157.125
-40.08,1769236157.140625
-46.88,1769236157.15625
-55.47,1769236157.171875
-67.05,1769236157.1875
-81.86,1769236157.203125
-98.78,1769236157.21875
-115.14,1769236157.234375
-127.12,1769236157.25
-130.74,1769236157.265625
-123.13,1769236157.28125
-103.71,1769236157.296875
-74.63,1769236157.3125
-40.19,1769236157.328125
-5.51,1769236157.34375
25.07,1769236157.359375
49.09,1769236157.375
66.18,1769236157.390625
77.45,1769236157.40625
84.4,1769236157.421875
88.2,1769236157.4375
89.34,1769236157.453125
87.96,1769236157.46875
84.26,1769236157.484375
78.86,1769236157.5
72.81,1769236157.515625
67.19,1769236157.53125
62.79,1769236157.546875
59.82,1769236157.5625
57.89,1769236157.578125
56.32,1769236157.59375
54.44,1769236157.609375
51.99,1769236157.625
49.07,1769236157.640625
46.08,1769236157.65625
43.38,1769236157.671875
40.96,1769236157.6875
38.37,1769236157.703125
34.77,1769236157.71875
29.25,1769236157.734375
21.21,1769236157.75
10.74,1769236157.765625
-1.35,1769236157.78125
-13.72,1769236157.796875
-24.97,1769236157.8125
-34.13,1769236157.828125
-41.12,1769236157.84375
-46.72,1769236157.859375
-52.35,1769236157.875
-59.57,1769236157.890625
-69.61,1769236157.90625
-83.14,1769236157.921875
-99.9,1769236157.9375
-118.48,1769236157.953125
-136.24,1769236157.96875
-149.52,1769236157.984375
-154.4,1769236158.0
-147.89,1769236158.015625
-129.12,1769236158.03125
-99.94,1769236158.046875
-64.55,1769236158.0625
-28.14,1769236158.078125
4.72,1769236158.09375
31.34,1769236158.109375
51.19,1769236158.125
65.34,1769236158.140625
75.36,1769236158.15625
82.51,1769236158.171875
87.44,1769236158.1875
90.35,1769236158.203125
91.43,1769236158.21875
91.04,1769236158.234375
89.74,1769236158.25
88.02,1769236158.265625
86.16,1769236158.28125
84.14,1769236158.296875
81.77,1769236158.3125
78.94,1769236158.328125
75.83,1769236158.34375
72.95,1769236158.359375
70.92,1769236158.375
70.13,1769236158.390625
70.43,1769236158.40625
70.98,1769236158.421875
70.53,1769236158.4375
67.93,1769236158.453125
62.63,1769236158.46875
55.0,1769236158.484375
46.15,1769236158.5
37.38,1769236158.515625
29.62,1769236158.53125
23.07,1769236158.546875
17.12,1769236158.5625
10.85,1769236158.578125
3.48,1769236158.59375
-5.17,1769236158.609375
-14.61,1769236158.625
-24.01,1769236158.640625
-32.48,1769236158.65625
-39.69,1769236158.671875
-45.94,1769236158.6875
-52.21,1769236158.703125
-59.84,1769236158.71875
-70.22,1769236158.734375
-84.33,1769236158.75
-102.23,1769236158.765625
-122.65,1769236158.78125
-142.72,1769236158.796875
-158.27,1769236158.8125
-164.83,1769236158.828125
-159.01,1769236158.84375
-139.83,1769236158.859375
-109.37,1769236158.875
-72.29,1769236158.890625
-34.36,1769236158.90625
-0.62,1769236158.921875
25.93,1769236158.9375
44.72,1769236158.953125
57.04,1769236158.96875
64.86,1769236158.984375
69.9,1769236159.0
73.18,1769236159.015625
75.09,1769236159.03125
75.79,1769236159.046875
75.48,1769236159.0625
74.42,1769236159.078125
72.89,1769236159.09375
71.08,1769236159.109375
69.07,1769236159.125
66.93,1769236159.140625
64.84,1769236159.15625
63.04,1769236159.171875
61.81,1769236159.1875
61.26,1769236159.203125
61.18,1769236159.21875
61.0,1769236159.234375
59.92,1769236159.25
57.2,1769236159.265625
52.44,1769236159.28125
45.8,1769236159.296875
37.94,1769236159.3125
29.81,1769236159.328125
22.21,1769236159.34375
15.47,1769236159.359375
9.36,1769236159.375
3.23,1769236159.390625
-3.6,1769236159.40625
-11.44,1769236159.421875
-20.03,1769236159.4375
-28.6,1769236159.453125
-36.23,1769236159.46875
-42.24,1769236159.484375
-46.66,1769236159.5
-50.25,1769236159.515625
-54.39,1769236159.53125
-60.6,1769236159.546875
-70.02,1769236159.5625
-82.81,1769236159.578125
-97.65,1769236159.59375
-111.77,1769236159.609375
-121.36,1769236159.625
-122.73,1769236159.640625
-113.46,1769236159.65625
-93.51,1769236159.671875
-65.37,1769236159.6875
-33.28,1769236159.703125
-1.96,1769236159.71875
24.86,1769236159.734375
45.3,1769236159.75
59.33,1769236159.765625
67.97,1769236159.78125
72.54,1769236159.796875
73.89,1769236159.8125
72.46,1769236159.828125
68.51,1769236159.84375
62.61,1769236159.859375
55.74,1769236159.875
49.14,1769236159.890625
43.86,1769236159.90625
40.47,1769236159.921875
38.81,1769236159.9375
38.19,1769236159.953125
37.71,1769236159.96875
36.74,1769236159.984375
35.1,1769236160.0
33.06,1769236160.015625
31.14,1769236160.03125
29.69,1769236160.046875
28.61,1769236160.0625
27.26,1769236160.078125
24.67,1769236160.09375
19.92,1769236160.109375
12.61,1769236160.125
3.09,1769236160.140625
-7.53,1769236160.15625
-17.79,1769236160.171875
-26.43,1769236160.1875
-32.84,1769236160.203125
-37.34,1769236160.21875
-40.93,1769236160.234375
-44.98,1769236160.25
-50.69,1769236160.265625
-58.79,1769236160.28125
-69.33,1769236160.296875
-81.53,1769236160.3125
-93.73,1769236160.328125
-103.46,1769236160.34375
-107.84,1769236160.359375
-104.3,1769236160.375
-91.58,1769236160.390625
-70.33,1769236160.40625
-43.24,1769236160.421875
-14.3,1769236160.4375
12.45,1769236160.453125
34.06,1769236160.46875
49.36,1769236160.484375
58.73,1769236160.5
63.36,1769236160.515625
64.44,1769236160.53125
62.66,1769236160.546875
58.32,1769236160.5625
51.73,1769236160.578125
43.63,1769236160.59375
35.26,1769236160.609375
28.02,1769236160.625
22.99,1769236160.640625
20.48,1769236160.65625
19.91,1769236160.671875
20.16,1769236160.6875
20.09,1769236160.703125
19.09,1769236160.71875
17.28,1769236160.734375
15.29,1769236160.75
13.73,1769236160.765625
12.69,1769236160.78125
11.5,1769236160.796875
8.94,1769236160.8125
3.83,1769236160.828125
-4.31,1769236160.84375
-14.93,1769236160.859375
-26.55,1769236160.875
-37.36,1769236160.890625
-46.02,1769236160.90625
-52.13,1769236160.921875
-56.36,1769236160.9375
-60.03,1769236160.953125
-64.6,1769236160.96875
-71.21,1769236160.984375
-80.44,1769236161.0
-92.25,1769236161.015625
-105.78,1769236161.03125
-119.25,1769236161.046875
-129.88,1769236161.0625
-134.32,1769236161.078125
-129.57,1769236161.09375
-114.11,1769236161.109375
-88.78,1769236161.125
-56.81,1769236161.140625
-22.88,1769236161.15625
8.32,1769236161.171875
33.56,1769236161.1875
51.73,1769236161.203125
63.59,1769236161.21875
70.86,1769236161.234375
75.22,1769236161.25
77.73,1769236161.265625
78.72,1769236161.28125
78.21,1769236161.296875
76.25,1769236161.3125
73.11,1769236161.328125
69.23,1769236161.34375
65.09,1769236161.359375
61.04,1769236161.375
57.31,1769236161.390625
54.02,1769236161.40625
51.21,1769236161.421875
48.92,1769236161.4375
47.1,1769236161.453125
45.61,1769236161.46875
44.2,1769236161.484375
42.56,1769236161.5
40.32,1769236161.515625
37.13,1769236161.53125
32.75,1769236161.546875
27.05,1769236161.5625
20.06,1769236161.578125
11.97,1769236161.59375
3.05,1769236161.609375
-6.35,1769236161.625
-15.86,1769236161.640625
-25.05,1769236161.65625
-33.57,1769236161.671875
-41.16,1769236161.6875
-47.8,1769236161.703125
-53.74,1769236161.71875
-59.55,1769236161.734375
-66.02,1769236161.75
-74.05,1769236161.765625
-84.47,1769236161.78125
-97.55,1769236161.796875
-112.6,1769236161.8125
-127.52,1769236161.828125
-138.92,1769236161.84375
-142.9,1769236161.859375
-136.31,1769236161.875
-118.1,1769236161.890625
-89.94,1769236161.90625
-55.86,1769236161.921875
-20.91,1769236161.9375
10.43,1769236161.953125
35.45,1769236161.96875
53.48,1769236161.984375
65.39,1769236162.0
72.68,1769236162.015625
76.73,1769236162.03125
78.53,1769236162.046875
78.66,1769236162.0625
77.6,1769236162.078125
75.78,1769236162.09375
73.61,1769236162.109375
71.32,1769236162.125
68.94,1769236162.140625
66.35,1769236162.15625
63.45,1769236162.171875
60.26,1769236162.1875
57.09,1769236162.203125
54.45,1769236162.21875
52.76,1769236162.234375
52.15,1769236162.25
52.21,1769236162.265625
52.04,1769236162.28125
50.6,1769236162.296875
47.05,1769236162.3125
41.22,1769236162.328125
33.65,1769236162.34375
25.29,1769236162.359375
17.11,1769236162.375
9.64,1769236162.390625
2.76,1769236162.40625
-4.11,1769236162.421875
-11.6,1769236162.4375
-20.01,1769236162.453125
-29.14,1769236162.46875
-38.3,1769236162.484375
-46.74,1769236162.5
-53.93,1769236162.515625
-59.88,1769236162.53125
-65.16,1769236162.546875
-70.81,1769236162.5625
-78.03,1769236162.578125
-87.94,1769236162.59375
-101.03,1769236162.609375
-116.66,1769236162.625
-132.71,1769236162.640625
-145.62,1769236162.65625
-151.2,1769236162.671875
-145.91,1769236162.6875
-128.25,1769236162.703125
-99.58,1769236162.71875
-63.81,1769236162.734375
-26.26,1769236162.75
8.06,1769236162.765625
35.85,1769236162.78125
55.97,1769236162.796875
69.14,1769236162.8125
76.95,1769236162.828125
81.01,1769236162.84375
82.42,1769236162.859375
81.85,1769236162.875
79.78,1769236162.890625
76.71,1769236162.90625
73.17,1769236162.921875
69.62,1769236162.9375
66.24,1769236162.953125
63.04,1769236162.96875
59.93,1769236162.984375
56.95,1769236163.0
54.3,1769236163.015625
52.21,1769236163.03125
50.81,1769236163.046875
49.93,1769236163.0625
49.11,1769236163.078125
47.73,1769236163.09375
45.32,1769236163.109375
41.63,1769236163.125
36.76,1769236163.140625
30.96,1769236163.15625
24.44,1769236163.171875
17.28,1769236163.1875
9.44,1769236163.203125
0.99,1769236163.21875
-7.75,1769236163.234375
-16.22,1769236163.25
-23.79,1769236163.265625
-30.08,1769236163.28125
-35.12,1769236163.296875
-39.48,1769236163.3125
-44.08,1769236163.328125
-49.89,1769236163.34375
-57.73,1769236163.359375
-68.07,1769236163.375
-80.78,1769236163.390625
-94.94,1769236163.40625
-108.63,1769236163.421875
-118.9,1769236163.4375
-122.4,1769236163.453125
-116.33,1769236163.46875
-99.59,1769236163.484375
-73.53,1769236163.5
-41.69,1769236163.515625
-8.79,1769236163.53125
20.78,1769236163.546875
44.25,1769236163.5625
60.83,1769236163.578125
71.35,1769236163.59375
77.19,1769236163.609375
79.51,1769236163.625
78.85,1769236163.640625
75.38,1769236163.65625
69.42,1769236163.671875
61.78,1769236163.6875
53.8,1769236163.703125
46.93,1769236163.71875
42.19,1769236163.734375
39.83,1769236163.75
39.31,1769236163.765625
39.6,1769236163.78125
39.71,1769236163.796875
39.07,1769236163.8125
37.74,1769236163.828125
36.19,1769236163.84375
34.92,1769236163.859375
33.96,1769236163.875
32.74,1769236163.890625
30.16,1769236163.90625
25.12,1769236163.921875
17.0,1769236163.9375
6.13,1769236163.953125
-6.33,1769236163.96875
-18.68,1769236163.984375
-29.41,1769236164.0
-37.66,1769236164.015625
-43.57,1769236164.03125
-48.08,1769236164.046875
-52.57,1769236164.0625
-58.49,1769236164.078125
-66.91,1769236164.09375
-78.32,1769236164.109375
-92.29,1769236164.125
-107.19,1769236164.140625
-120.12,1769236164.15625
-127.4,1769236164.171875
-125.46,1769236164.1875
-112.21,1769236164.203125
-88.01,1769236164.21875
-55.83,1769236164.234375
-20.47,1769236164.25
13.03,1769236164.265625
40.88,1769236164.28125
61.44,1769236164.296875
75.06,1769236164.3125
83.16,1769236164.328125
87.34,1769236164.34375
88.64,1769236164.359375
87.54,1769236164.375
84.29,1769236164.390625
79.28,1769236164.40625
73.2,1769236164.421875
66.89,1769236164.4375
61.13,1769236164.453125
56.35,1769236164.46875
52.69,1769236164.484375
50.0,1769236164.5
48.12,1769236164.515625
46.85,1769236164.53125
46.03,1769236164.546875
45.33,1769236164.5625
44.29,1769236164.578125
42.29,1769236164.59375
38.8,1769236164.609375
33.58,1769236164.625
26.77,1769236164.640625
18.88,1769236164.65625
10.51,1769236164.671875
2.1,1769236164.6875
-6.22,1769236164.703125
-14.62,1769236164.71875
-23.29,1769236164.734375
-32.27,1769236164.75
-41.23,1769236164.765625
-49.61,1769236164.78125
-56.89,1769236164.796875
-62.85,1769236164.8125
-67.8,1769236164.828125
-72.53,1769236164.84375
-78.24,1769236164.859375
-86.22,1769236164.875
-97.48,1769236164.890625
-112.24,1769236164.90625
-129.34,1769236164.921875
-145.97,1769236164.9375
-157.95,1769236164.953125
-160.81,1769236164.96875
-151.2,1769236164.984375
-128.38,1769236165.0
-94.73,1769236165.015625
-55.16,1769236165.03125
-15.56,1769236165.046875
19.04,1769236165.0625
45.82,1769236165.078125
64.38,1769236165.09375
76.17,1769236165.109375
83.26,1769236165.125
87.42,1769236165.140625
89.68,1769236165.15625
90.41,1769236165.171875
89.67,1769236165.1875
87.62,1769236165.203125
84.63,1769236165.21875
81.19,1769236165.234375
77.77,1769236165.25
74.62,1769236165.265625
71.79,1769236165.28125
69.14,1769236165.296875
66.57,1769236165.3125
64.09,1769236165.328125
61.82,1769236165.34375
59.92,1769236165.359375
58.39,1769236165.375
56.98,1769236165.390625
55.28,1769236165.40625
52.78,1769236165.421875
49.06,1769236165.4375
43.86,1769236165.453125
37.02,1769236165.46875
28.51,1769236165.484375
18.44,1769236165.5
7.25,1769236165.515625
-4.36,1769236165.53125
-15.46,1769236165.546875
-25.21,1769236165.5625
-33.13,1769236165.578125
-39.43,1769236165.59375
-44.86,1769236165.609375
-50.58,1769236165.625
-57.8,1769236165.640625
-67.47,1769236165.65625
-79.94,1769236165.671875
-94.61,1769236165.6875
-109.66,1769236165.703125
-122.06,1769236165.71875
-128.1,1769236165.734375
-124.48,1769236165.75
-109.56,1769236165.765625
-84.22,1769236165.78125
-51.81,1769236165.796875
-17.16,1769236165.8125
15.01,1769236165.828125
41.42,1769236165.84375
60.86,1769236165.859375
73.85,1769236165.875
81.74,1769236165.890625
85.89,1769236165.90625
87.22,1769236165.921875
86.3,1769236165.9375
83.69,1769236165.953125
80.24,1769236165.96875
76.97,1769236165.984375
74.73,1769236166.0
73.89,1769236166.015625
74.07,1769236166.03125
74.36,1769236166.046875
73.75,1769236166.0625
71.56,1769236166.078125
67.87,1769236166.09375
63.4,1769236166.109375
59.24,1769236166.125
56.21,1769236166.140625
54.44,1769236166.15625
53.2,1769236166.171875
51.18,1769236166.1875
47.09,1769236166.203125
40.18,1769236166.21875
30.68,1769236166.234375
19.61,1769236166.25
8.39,1769236166.265625
-1.86,1769236166.28125
-10.72,1769236166.296875
-18.57,1769236166.3125
-26.25,1769236166.328125
-34.46,1769236166.34375
-43.34,1769236166.359375
-52.36,1769236166.375
-60.57,1769236166.390625
-67.12,1769236166.40625
-71.71,1769236166.421875
-74.83,1769236166.4375
-77.62,1769236166.453125
-81.5,1769236166.46875
-87.81,1769236166.484375
-97.43,1769236166.5
-110.48,1769236166.515625
-126.05,1769236166.53125
-141.97,1769236166.546875
-154.92,1769236166.5625
-161.0,1769236166.578125
-156.74,1769236166.59375
-140.5,1769236166.609375
-113.24,1769236166.625
-78.54,1769236166.640625
-41.62,1769236166.65625
-7.64,1769236166.671875
19.77,1769236166.6875
39.34,1769236166.703125
51.88,1769236166.71875
59.25,1769236166.734375
63.31,1769236166.75
65.15,1769236166.765625
65.15,1769236166.78125
63.36,1769236166.796875
60.07,1769236166.8125
55.94,1769236166.828125
51.87,1769236166.84375
48.62,1769236166.859375
46.48,1769236166.875
45.26,1769236166.890625
44.51,1769236166.90625
43.87,1769236166.921875
43.25,1769236166.9375
42.82,1769236166.953125
42.77,1769236166.96875
43.02,1769236166.984375
43.11,1769236167.0
42.31,1769236167.015625
39.99,1769236167.03125
35.93,1769236167.046875
30.43,1769236167.0625
24.22,1769236167.078125
18.09,1769236167.09375
12.53,1769236167.109375
7.55,1769236167.125
2.74,1769236167.140625
-2.4,1769236167.15625
-8.14,1769236167.171875
-14.29,1769236167.1875
-20.25,1769236167.203125
-25.39,1769236167.21875
-29.39,1769236167.234375
-32.53,1769236167.25
-35.67,1769236167.265625
-39.98,1769236167.28125
-46.55,1769236167.296875
-55.93,1769236167.3125
-67.77,1769236167.328125
-80.57,1769236167.34375
-91.84,1769236167.359375
-98.48,1769236167.375
-97.7,1769236167.390625
-87.93,1769236167.40625
-69.51,1769236167.421875
-44.79,1769236167.4375
-17.47,1769236167.453125
8.49,1769236167.46875
30.11,1769236167.484375
45.98,1769236167.5
56.18,1769236167.515625
61.71,1769236167.53125
63.7,1769236167.546875
62.9,1769236167.5625
59.74,1769236167.578125
54.61,1769236167.59375
48.2,1769236167.609375
41.62,1769236167.625
36.08,1769236167.640625
32.54,1769236167.65625
31.3,1769236167.671875
31.88,1769236167.6875
33.28,1769236167.703125
34.51,1769236167.71875
34.95,1769236167.734375
34.61,1769236167.75
33.89,1769236167.765625
33.23,1769236167.78125
32.63,1769236167.796875
31.57,1769236167.8125
29.19,1769236167.828125
24.71,1769236167.84375
17.91,1769236167.859375
9.32,1769236167.875
0.11,1769236167.890625
-8.42,1769236167.90625
-15.31,1769236167.921875
-20.3,1769236167.9375
-23.92,1769236167.953125
-27.14,1769236167.96875
-31.11,1769236167.984375
-36.74,1769236168.0
-44.46,1769236168.015625
-54.03,1769236168.03125
-64.43,1769236168.046875
-73.87,1769236168.0625
-80.05,1769236168.078125
-80.67,1769236168.09375
-74.2,1769236168.109375
-60.44,1769236168.125
-40.79,1769236168.140625
-18.0,1769236168.15625
4.77,1769236168.171875
24.79,1769236168.1875
40.43,1769236168.203125
51.27,1769236168.21875
57.6,1769236168.234375
59.96,1769236168.25
58.77,1769236168.265625
54.46,1769236168.28125
47.72,1769236168.296875
39.68,1769236168.3125
31.86,1769236168.328125
25.66,1769236168.34375
21.91,1769236168.359375
20.58,1769236168.375
20.93,1769236168.390625
21.9,1769236168.40625
22.64,1769236168.421875
22.76,1769236168.4375
22.3,1769236168.453125
21.48,1769236168.46875
20.34,1769236168.484375
18.59,1769236168.5
15.71,1769236168.515625
11.12,1769236168.53125
4.59,1769236168.546875
-3.67,1769236168.5625
-12.91,1769236168.578125
-22.15,1769236168.59375
-30.43,1769236168.609375
-37.2,1769236168.625
-42.5,1769236168.640625
-46.98,1769236168.65625
-51.75,1769236168.671875
-57.99,1769236168.6875
-66.65,1769236168.703125
-77.9,1769236168.71875
-90.74,1769236168.734375
-102.93,1769236168.75
-111.29,1769236168.765625
-112.63,1769236168.78125
-104.8,1769236168.796875
-87.67,1769236168.8125
-63.35,1769236168.828125
-35.58,1769236168.84375
-8.52,1769236168.859375
14.59,1769236168.875
32.24,1769236168.890625
44.58,1769236168.90625
52.74,1769236168.921875
58.02,1769236168.9375
61.22,1769236168.953125
62.56,1769236168.96875
62.0,1769236168.984375
59.65,1769236169.0
56.04,1769236169.015625
52.01,1769236169.03125
48.38,1769236169.046875
45.69,1769236169.0625
43.96,1769236169.078125
42.77,1769236169.09375
41.59,1769236169.109375
40.01,1769236169.125
37.93,1769236169.140625
35.61,1769236169.15625
33.38,1769236169.171875
31.47,1769236169.1875
29.76,1769236169.203125
27.79,1769236169.21875
24.85,1769236169.234375
20.3,1769236169.25
13.85,1769236169.265625
5.66,1769236169.28125
-3.6,1769236169.296875
-13.04,1769236169.3125
-21.79,1769236169.328125
-29.26,1769236169.34375
-35.35,1769236169.359375
-40.44,1769236169.375
-45.28,1769236169.390625
-50.78,1769236169.40625
-57.88,1769236169.421875
-67.27,1769236169.4375
-79.14,1769236169.453125
-92.87,1769236169.46875
-106.76,1769236169.484375
-118.14,1769236169.5
-123.85,1769236169.515625
-121.23,1769236169.53125
-109.07,1769236169.546875
-88.19,1769236169.5625
-61.39,1769236169.578125
-32.55,1769236169.59375
-5.44,1769236169.609375
17.35,1769236169.625
34.87,1769236169.640625
47.59,1769236169.65625
56.64,1769236169.671875
63.14,1769236169.6875
67.75,1769236169.703125
70.68,1769236169.71875
71.99,1769236169.734375
71.78,1769236169.75
70.33,1769236169.765625
68.02,1769236169.78125
65.26,1769236169.796875
62.33,1769236169.8125
59.46,1769236169.828125
56.83,1769236169.84375
54.57,1769236169.859375
52.75,1769236169.875
51.29,1769236169.890625
49.96,1769236169.90625
48.43,1769236169.921875
46.35,1769236169.9375
43.44,1769236169.953125
39.58,1769236169.96875
34.77,1769236169.984375
29.11,1769236170.0
22.79,1769236170.015625
15.96,1769236170.03125
8.78,1769236170.046875
1.36,1769236170.0625
-6.14,1769236170.078125
-13.52,1769236170.09375
-20.53,1769236170.109375
-26.97,1769236170.125
-32.78,1769236170.140625
-38.15,1769236170.15625
-43.49,1769236170.171875
-49.49,1769236170.1875
-56.85,1769236170.203125
-66.18,1769236170.21875
-77.6,1769236170.234375
-90.38,1769236170.25
-102.67,1769236170.265625
-111.66,1769236170.28125
-114.2,1769236170.296875
-107.88,1769236170.3125
-91.97,1769236170.328125
-67.95,1769236170.34375
-39.15,1769236170.359375
-9.68,1769236170.375
16.87,1769236170.390625
38.27,1769236170.40625
53.93,1769236170.421875
64.4,1769236170.4375
70.67,1769236170.453125
73.6,1769236170.46875
73.78,1769236170.484375
71.61,1769236170.5
67.61,1769236170.515625
62.48,1769236170.53125
57.04,1769236170.546875
52.05,1769236170.5625
48.1,1769236170.578125
45.43,1769236170.59375
43.95,1769236170.609375
43.29,1769236170.625
42.88,1769236170.640625
42.25,1769236170.65625
41.1,1769236170.671875
39.46,1769236170.6875
37.58,1769236170.703125
35.7,1769236170.71875
33.91,1769236170.734375
31.9,1769236170.75
29.16,1769236170.765625
25.11,1769236170.78125
19.47,1769236170.796875
12.41,1769236170.8125
4.57,1769236170.828125
-3.13,1769236170.84375
-9.9,1769236170.859375
-15.36,1769236170.875
-19.69,1769236170.890625
-23.53,1769236170.90625
-27.68,1769236170.921875
-32.89,1769236170.9375
-39.66,1769236170.953125
-48.26,1769236170.96875
-58.58,1769236170.984375
-70.0,1769236171.0
-81.14,1769236171.015625
-89.81,1769236171.03125
-93.36,1769236171.046875
-89.46,1769236171.0625
-77.1,1769236171.078125
-57.22,1769236171.09375
-32.6,1769236171.109375
-6.97,1769236171.125
16.26,1769236171.140625
34.99,1769236171.15625
48.76,1769236171.171875
58.23,1769236171.1875
64.37,1769236171.203125
67.75,1769236171.21875
68.43,1769236171.234375
66.3,1769236171.25
61.6,1769236171.265625
55.21,1769236171.28125
48.52,1769236171.296875
42.97,1769236171.3125
39.53,1769236171.328125
38.36,1769236171.34375
38.85,1769236171.359375
39.93,1769236171.375
40.51,1769236171.390625
39.9,1769236171.40625
37.99,1769236171.421875
35.12,1769236171.4375
31.79,1769236171.453125
28.33,1769236171.46875
24.67,1769236171.484375
20.42,1769236171.5
15.05,1769236171.515625
8.27,1769236171.53125
0.2,1769236171.546875
-8.59,1769236171.5625
-17.31,1769236171.578125
-25.21,1769236171.59375
-31.88,1769236171.609375
-37.39,1769236171.625
-42.21,1769236171.640625
-47.09,1769236171.65625
-52.85,1769236171.671875
-60.28,1769236171.6875
-69.94,1769236171.703125
-81.94,1769236171.71875
-95.62,1769236171.734375
-109.27,1769236171.75
-120.18,1769236171.765625
-125.16,1769236171.78125
-121.52,1769236171.796875
-108.1,1769236171.8125
-85.92,1769236171.828125
-58.02,1769236171.84375
-28.54,1769236171.859375
-1.36,1769236171.875
20.91,1769236171.890625
37.46,1769236171.90625
48.9,1769236171.921875
56.5,1769236171.9375
61.52,1769236171.953125
64.7,1769236171.96875
66.41,1769236171.984375
66.84,1769236172.0
66.25,1769236172.015625
64.99,1769236172.03125
63.41,1769236172.046875
61.7,1769236172.0625
59.88,1769236172.078125
57.92,1769236172.09375
55.86,1769236172.109375
53.94,1769236172.125
52.52,1769236172.140625
51.81,1769236172.15625
51.68,1769236172.171875
51.57,1769236172.1875
50.65,1769236172.203125
48.09,1769236172.21875
43.54,1769236172.234375
37.25,1769236172.25
29.97,1769236172.265625
22.71,1769236172.28125
16.16,1769236172.296875
10.48,1769236172.3125
5.21,1769236172.328125
-0.42,1769236172.34375
-7.02,1769236172.359375
-14.73,1769236172.375
-23.09,1769236172.390625
-31.3,1769236172.40625
-38.59,1769236172.421875
-44.65,1769236172.4375
-49.69,1769236172.453125
-54.51,1769236172.46875
-60.21,1769236172.484375
-67.93,1769236172.5
-78.49,1769236172.515625
-91.93,1769236172.53125
-107.12,1769236172.546875
-121.56,1769236172.5625
-131.71,1769236172.578125
-133.88,1769236172.59375
-125.51,1769236172.609375
-106.24,1769236172.625
-78.28,1769236172.640625
-45.82,1769236172.65625
-13.65,1769236172.671875
14.24,1769236172.6875
35.73,1769236172.703125
50.66,1769236172.71875
60.26,1769236172.734375
66.23,1769236172.75
69.93,1769236172.765625
72.09,1769236172.78125
72.96,1769236172.796875
72.63,1769236172.8125
71.28,1769236172.828125
69.27,1769236172.84375
66.96,1769236172.859375
64.62,1769236172.875
62.3,1769236172.890625
59.92,1769236172.90625
57.53,1769236172.921875
55.28,1769236172.9375
53.52,1769236172.953125
52.51,1769236172.96875
52.2,1769236172.984375
52.13,1769236173.0
51.54,1769236173.015625
49.64,1769236173.03125
45.95,1769236173.046875
40.51,1769236173.0625
33.87,1769236173.078125
26.78,1769236173.09375
19.98,1769236173.109375
13.74,1769236173.125
7.93,1769236173.140625
2.0,1769236173.15625
-4.6,1769236173.171875
-12.16,1769236173.1875
-20.43,1769236173.203125
-28.72,1769236173.21875
-36.21,1769236173.234375
-42.28,1769236173.25
-46.92,1769236173.265625
-50.74,1769236173.28125
-54.87,1769236173.296875
-60.56,1769236173.3125
-68.83,1769236173.328125
-79.98,1769236173.34375
-93.24,1769236173.359375
-106.57,1769236173.375
-116.84,1769236173.390625
-120.61,1769236173.40625
-115.19,1769236173.421875
-99.76,1769236173.4375
-75.82,1769236173.453125
-46.92,1769236173.46875
-17.5,1769236173.484375
8.56,1769236173.5
28.94,1769236173.515625
43.21,1769236173.53125
52.32,1769236173.546875
57.72,1769236173.5625
60.57,1769236173.578125
61.52,1769236173.59375
60.77,1769236173.609375
58.46,1769236173.625
54.95,1769236173.640625
50.91,1769236173.65625
47.15,1769236173.671875
44.34,1769236173.6875
42.8,1769236173.703125
42.39,1769236173.71875
42.59,1769236173.734375
42.77,1769236173.75
42.47,1769236173.765625
41.58,1769236173.78125
40.32,1769236173.796875
39.01,1769236173.8125
37.81,1769236173.828125
36.45,1769236173.84375
34.35,1769236173.859375
30.81,1769236173.875
25.35,1769236173.890625
18.04,1769236173.90625
9.49,1769236173.921875
0.73,1769236173.9375
-7.21,1769236173.953125
-13.62,1769236173.96875
-18.39,1769236173.984375
-21.97,1769236174.0
-25.21,1769236174.015625
-29.11,1769236174.03125
-34.5,1769236174.046875
-41.97,1769236174.0625
-51.65,1769236174.078125
-63.11,1769236174.09375
-75.1,1769236174.109375
-85.5,1769236174.125
-91.62,1769236174.140625
-90.81,1769236174.15625
-81.54,1769236174.171875
-64.04,1769236174.1875
-40.56,1769236174.203125
-14.69,1769236174.21875
9.78,1769236174.234375
30.02,1769236174.25
44.79,1769236174.265625
54.31,1769236174.28125
59.56,1769236174.296875
61.48,1769236174.3125
60.68,1769236174.328125
57.43,1769236174.34375
52.14,1769236174.359375
45.63,1769236174.375
39.09,1769236174.390625
33.7,1769236174.40625
30.17,1769236174.421875
28.5,1769236174.4375
28.06,1769236174.453125
27.99,1769236174.46875
27.66,1769236174.484375
26.98,1769236174.5
26.27,1769236174.515625
25.94,1769236174.53125
26.07,1769236174.546875
26.18,1769236174.5625
25.34,1769236174.578125
22.58,1769236174.59375
17.31,1769236174.609375
9.74,1769236174.625
0.74,1769236174.640625
-8.31,1769236174.65625
-16.21,1769236174.671875
-22.24,1769236174.6875
-26.49,1769236174.703125
-29.69,1769236174.71875
-32.93,1769236174.734375
-37.32,1769236174.75
-43.66,1769236174.765625
-52.21,1769236174.78125
-62.46,1769236174.796875
-73.08,1769236174.8125
-81.94,1769236174.828125
-86.52,1769236174.84375
-84.59,1769236174.859375
-75.03,1769236174.875
-58.42,1769236174.890625
-36.99,1769236174.90625
-14.0,1769236174.921875
7.32,1769236174.9375
24.78,1769236174.953125
37.67,1769236174.96875
46.65,1769236174.984375
52.96,1769236175.0
57.82,1769236175.015625
61.82,1769236175.03125
65.06,1769236175.046875
67.37,1769236175.0625
68.7,1769236175.078125
69.16,1769236175.09375
68.98,1769236175.109375
68.2,1769236175.125
66.58,1769236175.140625
63.66,1769236175.15625
58.99,1769236175.171875
52.45,1769236175.1875
44.38,1769236175.203125
35.56,1769236175.21875
26.95,1769236175.234375
19.37,1769236175.25
13.28,1769236175.265625
8.57,1769236175.28125
4.6,1769236175.296875
0.32,1769236175.3125
-5.35,1769236175.328125
-13.14,1769236175.34375
-23.15,1769236175.359375
-34.68,1769236175.375
-46.56,1769236175.390625
-57.59,1769236175.40625
-67.04,1769236175.421875
-74.86,1769236175.4375
-81.68,1769236175.453125
-88.43,1769236175.46875
-95.99,1769236175.484375
-105.07,1769236175.5
-116.01,1769236175.515625
-128.65,1769236175.53125
-142.01,1769236175.546875
-153.97,1769236175.5625
-161.47,1769236175.578125
-161.16,1769236175.59375
-150.62,1769236175.609375
-129.47,1769236175.625
-99.89,1769236175.640625
-65.98,1769236175.65625
-32.5,1769236175.671875
-3.35,1769236175.6875
19.37,1769236175.703125
35.52,1769236175.71875
46.24,1769236175.734375
53.07,1769236175.75
57.3,1769236175.765625
59.64,1769236175.78125
60.47,1769236175.796875
60.03,1769236175.8125
58.67,1769236175.828125
56.82,1769236175.84375
54.88,1769236175.859375
53.13,1769236175.875
51.59,1769236175.890625
50.07,1769236175.90625
48.35,1769236175.921875
46.29,1769236175.9375
43.92,1769236175.953125
41.47,1769236175.96875
39.2,1769236175.984375
37.24,1769236176.0
35.56,1769236176.015625
33.84,1769236176.03125
31.59,1769236176.046875
28.27,1769236176.0625
23.45,1769236176.078125
16.87,1769236176.09375
8.72,1769236176.109375
-0.46,1769236176.125
-9.82,1769236176.140625
-18.44,1769236176.15625
-25.68,1769236176.171875
-31.43,1769236176.1875
-36.21,1769236176.203125
-41.0,1769236176.21875
-46.99,1769236176.234375
-55.23,1769236176.25
-66.25,1769236176.265625
-79.8,1769236176.28125
-94.56,1769236176.296875
-108.13,1769236176.3125
-117.4,1769236176.328125
-119.24,1769236176.34375
-111.62,1769236176.359375
-94.35,1769236176.375
-69.39,1769236176.390625
-40.35,1769236176.40625
-11.31,1769236176.421875
14.3,1769236176.4375
34.57,1769236176.453125
49.17,1769236176.46875
58.91,1769236176.484375
64.95,1769236176.5
68.29,1769236176.515625
69.57,1769236176.53125
69.08,1769236176.546875
67.14,1769236176.5625
64.2,1769236176.578125
60.84,1769236176.59375
57.63,1769236176.609375
55.01,1769236176.625
53.07,1769236176.640625
51.55,1769236176.65625
50.05,1769236176.671875
48.15,1769236176.6875
45.7,1769236176.703125
42.95,1769236176.71875
40.36,1769236176.734375
38.41,1769236176.75
37.19,1769236176.765625
36.23,1769236176.78125
34.5,1769236176.796875
30.85,1769236176.8125
24.45,1769236176.828125
15.29,1769236176.84375
4.18,1769236176.859375
-7.38,1769236176.875
-17.83,1769236176.890625
-26.14,1769236176.90625
-32.13,1769236176.921875
-36.55,1769236176.9375
-40.74,1769236176.953125
-46.12,1769236176.96875
-53.85,1769236176.984375
-64.5,1769236177.0
-77.84,1769236177.015625
-92.71,1769236177.03125
-106.92,1769236177.046875
-117.43,1769236177.0625
-121.0,1769236177.078125
-115.13,1769236177.09375
-99.12,1769236177.109375
-74.46,1769236177.125
-44.61,1769236177.140625
-13.88,1769236177.15625
13.85,1769236177.171875
36.17,1769236177.1875
52.44,1769236177.203125
63.33,1769236177.21875
70.02,1769236177.234375
73.51,1769236177.25
74.35,1769236177.265625
72.83,1769236177.28125
69.31,1769236177.296875
64.46,1769236177.3125
59.2,1769236177.328125
54.5,1769236177.34375
50.99,1769236177.359375
48.72,1769236177.375
47.24,1769236177.390625
45.84,1769236177.40625
43.95,1769236177.421875
41.39,1769236177.4375
38.5,1769236177.453125
35.84,1769236177.46875
33.85,1769236177.484375
32.44,1769236177.5
30.99,1769236177.515625
28.45,1769236177.53125
23.82,1769236177.546875
16.58,1769236177.5625
6.96,1769236177.578125
-4.07,1769236177.59375
-15.13,1769236177.609375
-24.88,1769236177.625
-32.51,1769236177.640625
-38.04,1769236177.65625
-42.29,1769236177.671875
-46.61,1769236177.6875
-52.45,1769236177.703125
-60.95,1769236177.71875
-72.6,1769236177.734375
-86.93,1769236177.75
-102.32,1769236177.765625
-116.06,1769236177.78125
-124.76,1769236177.796875
-125.13,1769236177.8125
-115.17,1769236177.828125
-94.92,1769236177.84375
-66.79,1769236177.859375
-34.82,1769236177.875
-3.47,1769236177.890625
23.74,1769236177.90625
45.01,1769236177.921875
60.24,1769236177.9375
70.34,1769236177.953125
76.37,1769236177.96875
79.08,1769236177.984375
78.79,1769236178.0
75.78,1769236178.015625
70.67,1769236178.03125
64.47,1769236178.046875
58.39,1769236178.0625
53.41,1769236178.078125
49.95,1769236178.09375
47.75,1769236178.109375
46.15,1769236178.125
44.43,1769236178.140625
42.21,1769236178.15625
39.62,1769236178.171875
37.19,1769236178.1875
35.45,1769236178.203125
34.5,1769236178.21875
33.77,1769236178.234375
32.12,1769236178.25
28.3,1769236178.265625
21.51,1769236178.28125
11.83,1769236178.296875
0.24,1769236178.3125
-11.67,1769236178.328125
-22.31,1769236178.34375
-30.67,1769236178.359375
-36.61,1769236178.375
-40.93,1769236178.390625
-44.97,1769236178.40625
-50.28,1769236178.421875
-58.06,1769236178.4375
-68.91,1769236178.453125
-82.47,1769236178.46875
-97.24,1769236178.484375
-110.52,1769236178.5
-118.94,1769236178.515625
-119.18,1769236178.53125
-109.12,1769236178.546875
-88.79,1769236178.5625
-60.53,1769236178.578125
-28.43,1769236178.59375
2.88,1769236178.609375
29.72,1769236178.625
50.08,1769236178.640625
63.77,1769236178.65625
71.74,1769236178.671875
75.2,1769236178.6875
75.09,1769236178.703125
71.98,1769236178.71875
66.38,1769236178.734375
59.1,1769236178.75
51.33,1769236178.765625
44.32,1769236178.78125
39.02,1769236178.796875
35.72,1769236178.8125
34.1,1769236178.828125
33.48,1769236178.84375
33.26,1769236178.859375
33.18,1769236178.875
33.3,1769236178.890625
33.73,1769236178.90625
34.26,1769236178.921875
34.23,1769236178.9375
32.6,1769236178.953125
28.43,1769236178.96875
21.31,1769236178.984375
11.69,1769236179.0
0.76,1769236179.015625
-9.99,1769236179.03125
-19.29,1769236179.046875
-26.66,1769236179.0625
-32.51,1769236179.078125
-38.07,1769236179.09375
-44.85,1769236179.109375
-54.23,1769236179.125
-66.76,1769236179.140625
-81.77,1769236179.15625
-97.18,1769236179.171875
-109.7,1769236179.1875
-115.62,1769236179.203125
-111.86,1769236179.21875
-97.17,1769236179.234375
-72.76,1769236179.25
-42.09,1769236179.265625
-9.88,1769236179.28125
19.41,1769236179.296875
42.7,1769236179.3125
58.96,1769236179.328125
68.75,1769236179.34375
73.44,1769236179.359375
74.36,1769236179.375
72.35,1769236179.390625
67.85,1769236179.40625
61.22,1769236179.421875
53.12,1769236179.4375
44.53,1769236179.453125
36.55,1769236179.46875
30.09,1769236179.484375
25.72,1769236179.5
23.49,1769236179.515625
23.06,1769236179.53125
23.83,1769236179.546875
24.96,1769236179.5625
25.55,1769236179.578125
24.71,1769236179.59375
21.81,1769236179.609375
16.63,1769236179.625
9.39,1769236179.640625
0.74,1769236179.65625
-8.58,1769236179.671875
-17.92,1769236179.6875
-26.93,1769236179.703125
-35.65,1769236179.71875
-44.51,1769236179.734375
-54.25,1769236179.75
-65.78,1769236179.765625
-79.73,1769236179.78125
-95.87,1769236179.796875
-112.51,1769236179.8125
-126.5,1769236179.828125
-133.76,1769236179.84375
-130.66,1769236179.859375
-115.46,1769236179.875
-89.2,1769236179.890625
-55.6,1769236179.90625
-19.85,1769236179.921875
13.01,1769236179.9375
39.53,1769236179.953125
58.43,1769236179.96875
70.26,1769236179.984375
76.6,1769236180.0
79.1,1769236180.015625
79.04,1769236180.03125
77.23,1769236180.046875
74.16,1769236180.0625
70.22,1769236180.078125
65.72,1769236180.09375
60.9,1769236180.109375
55.94,1769236180.125
50.97,1769236180.140625
46.14,1769236180.15625
41.73,1769236180.171875
38.05,1769236180.1875
35.35,1769236180.203125
33.58,1769236180.21875
32.28,1769236180.234375
30.63,1769236180.25
27.61,1769236180.265625
22.33,1769236180.28125
14.41,1769236180.296875
4.11,1769236180.3125
-7.67,1769236180.328125
-19.74,1769236180.34375
-30.99,1769236180.359375
-40.88,1769236180.375
-49.71,1769236180.390625
-58.53,1769236180.40625
-68.95,1769236180.421875
-82.33,1769236180.4375
-99.1,1769236180.453125
-117.94,1769236180.46875
-135.76,1769236180.484375
-148.18,1769236180.5
-150.86,1769236180.515625
-141.04,1769236180.53125
-118.68,1769236180.546875
-86.67,1769236180.5625
-49.95,1769236180.578125
-13.91,1769236180.59375
17.24,1769236180.609375
41.36,1769236180.625
58.41,1769236180.640625
69.68,1769236180.65625
76.78,1769236180.671875
81.0,1769236180.6875
83.16,1769236180.703125
83.76,1769236180.71875
83.24,1769236180.734375
82.11,1769236180.75
80.74,1769236180.765625
79.2,1769236180.78125
77.28,1769236180.796875
74.58,1769236180.8125
70.79,1769236180.828125
66.0,1769236180.84375
60.76,1769236180.859375
55.88,1769236180.875
52.12,1769236180.890625
49.79,1769236180.90625
48.49,1769236180.921875
47.16,1769236180.9375
44.36,1769236180.953125
38.84,1769236180.96875
30.02,1769236180.984375
18.3,1769236181.0
4.9,1769236181.015625
-8.48,1769236181.03125
-20.37,1769236181.046875
-30.03,1769236181.0625
-37.78,1769236181.078125
