PPG GREEN,time
2064626.0,1769236104.413
2065411.0,1769236104.451
2066203.0,1769236104.491
2067380.0,1769236104.532
2066025.0,1769236104.571
2063510.0,1769236104.612
2061736.0,1769236104.652
2060285.0,1769236104.691
2059463.0,1769236104.731
2059345.0,1769236104.773
2059654.0,1769236104.813
2059646.0,1769236104.852
2059478.0,1769236104.893
2059809.0,1769236104.932
2060564.0,1769236104.972
2060941.0,1769236105.014
2061858.0,1769236105.052
2063217.0,1769236105.092
2064175.0,1769236105.133
2065529.0,1769236105.172
2066869.0,1769236105.213
2067875.0,1769236105.253
2066029.0,1769236105.292
2063335.0,1769236105.333
2061362.0,1769236105.374
2060348.0,1769236105.414
2059287.0,1769236105.453
2059488.0,1769236105.494
2059536.0,1769236105.533
2059967.0,1769236105.573
2060080.0,1769236105.615
2060704.0,1769236105.653
2061524.0,1769236105.693
2062321.0,1769236105.734
2063220.0,1769236105.773
2064609.0,1769236105.814
2066006.0,1769236105.855
2067382.0,1769236105.894
2069083.0,1769236105.934
2069785.0,1769236105.975
2068372.0,1769236106.015
2065822.0,1769236106.054
2064333.0,1769236106.095
2063188.0,1769236106.134
2062245.0,1769236106.174
2061979.0,1769236106.216
2062411.0,1769236106.254
2062153.0,1769236106.294
2062499.0,1769236106.335
2063123.0,1769236106.374
2063829.0,1769236106.415
2065238.0,1769236106.456
2066231.0,1769236106.495
2067171.0,1769236106.535
2068541.0,1769236106.576
2069504.0,1769236106.616
2070886.0,1769236106.655
2070399.0,1769236106.696
2068249.0,1769236106.735
2067052.0,1769236106.775
2066480.0,1769236106.817
2065959.0,1769236106.855
2066146.0,1769236106.895
2066546.0,1769236106.936
2067074.0,1769236106.975
2067564.0,1769236107.016
2068151.0,1769236107.057
2069025.0,1769236107.096
2070264.0,1769236107.136
2071352.0,1769236107.177
2072735.0,1769236107.217
2074550.0,1769236107.256
2076149.0,1769236107.297
2077516.0,1769236107.336
2078496.0,1769236107.376
2077433.0,1769236107.418
2076252.0,1769236107.456
2075534.0,1769236107.496
2075296.0,1769236107.537
2075064.0,1769236107.576
2075643.0,1769236107.617
2076757.0,1769236107.658
2077610.0,1769236107.697
2078411.0,1769236107.737
2079553.0,1769236107.778
2080997.0,1769236107.818
2082377.0,1769236107.857
2084027.0,1769236107.898
2085673.0,1769236107.937
2087371.0,1769236107.977
2088940.0,1769236108.019
2090434.0,1769236108.057
2089351.0,1769236108.097
2087495.0,1769236108.138
2086575.0,1769236108.178
2085773.0,1769236108.219
2085793.0,1769236108.259
2086102.0,1769236108.298
2086387.0,1769236108.338
2087140.0,1769236108.379
2087857.0,1769236108.419
2088255.0,1769236108.458
2089444.0,1769236108.499
2090611.0,1769236108.538
2091714.0,1769236108.578
2093074.0,1769236108.62
2094445.0,1769236108.659
2095597.0,1769236108.699
2096885.0,1769236108.74
2096700.0,1769236108.779
2095158.0,1769236108.82
2093032.0,1769236108.86
2091541.0,1769236108.899
2090988.0,1769236108.939
2090352.0,1769236108.98
2090735.0,1769236109.02
2091573.0,1769236109.06
2092295.0,1769236109.14
2091831.0,1769236109.101
2093068.0,1769236109.18
2094539.0,1769236109.222
2095684.0,1769236109.26
2097185.0,1769236109.3
2098526.0,1769236109.341
2100110.0,1769236109.38
2101789.0,1769236109.421
2102367.0,1769236109.461
2100817.0,1769236109.5
2099322.0,1769236109.54
2098494.0,1769236109.582
2098009.0,1769236109.622
2098089.0,1769236109.702
2098377.0,1769236109.661
2098046.0,1769236109.741
2098113.0,1769236109.781
2098485.0,1769236109.823
2101341.0,1769236109.861
2102927.0,1769236109.901
2104580.0,1769236109.942
2106760.0,1769236109.981
2109005.0,1769236110.023
2110435.0,1769236110.063
2109169.0,1769236110.102
2107291.0,1769236110.142
2105348.0,1769236110.183
2102965.0,1769236110.223
2100686.0,1769236110.262
2099142.0,1769236110.342
2097807.0,1769236110.381
2096762.0,1769236110.422
2095972.0,1769236110.464
2095598.0,1769236110.502
2095506.0,1769236110.542
2095980.0,1769236110.583
2097004.0,1769236110.622
2097695.0,1769236110.663
2098553.0,1769236110.703
2098638.0,1769236110.742
2096067.0,1769236110.782
2093049.0,1769236110.824
2091021.0,1769236110.864
2089441.0,1769236110.903
2089078.0,1769236110.944
2089189.0,1769236110.983
2089533.0,1769236111.023
2089175.0,1769236111.065
2088789.0,1769236111.103
2088922.0,1769236111.143
2089214.0,1769236111.184
2089808.0,1769236111.223
2090530.0,1769236111.265
2090773.0,1769236111.305
2088687.0,1769236111.344
2085551.0,1769236111.384
2081991.0,1769236111.425
2079628.0,1769236111.465
2077501.0,1769236111.504
2076784.0,1769236111.545
2076485.0,1769236111.584
2075198.0,1769236111.624
2073051.0,1769236111.666
2069910.0,1769236111.704
2068026.0,1769236111.745
2066999.0,1769236111.786
2066372.0,1769236111.825
2066583.0,1769236111.866
2066966.0,1769236111.906
2064836.0,1769236111.945
2060189.0,1769236111.985
2056261.0,1769236112.026
2052769.0,1769236112.066
2050310.0,1769236112.105
2049306.0,1769236112.146
2048780.0,1769236112.185
2047846.0,1769236112.226
2047341.0,1769236112.268
2046580.0,1769236112.306
2046892.0,1769236112.346
2047291.0,1769236112.387
2047736.0,1769236112.426
2049064.0,1769236112.467
2050134.0,1769236112.507
2050479.0,1769236112.546
2046571.0,1769236112.586
2042411.0,1769236112.627
2038674.0,1769236112.667
2036365.0,1769236112.706
2034445.0,1769236112.747
2033924.0,1769236112.786
2032745.0,1769236112.826
2030831.0,1769236112.869
2028648.0,1769236112.907
2026792.0,1769236112.947
2025980.0,1769236112.988
2024924.0,1769236113.027
2024789.0,1769236113.068
2025088.0,1769236113.108
2025288.0,1769236113.147
2024981.0,1769236113.187
2020752.0,1769236113.228
2016083.0,1769236113.268
2013365.0,1769236113.307
2011042.0,1769236113.348
2009842.0,1769236113.387
2009163.0,1769236113.427
2009330.0,1769236113.469
2008316.0,1769236113.507
2008067.0,1769236113.547
2007451.0,1769236113.589
2006428.0,1769236113.628
2006014.0,1769236113.669
2005418.0,1769236113.709
2005661.0,1769236113.748
2005677.0,1769236113.788
2004882.0,1769236113.829
2000930.0,1769236113.869
1995710.0,1769236113.908
1991048.0,1769236113.949
1987756.0,1769236113.988
1985269.0,1769236114.028
1984208.0,1769236114.07
1983762.0,1769236114.108
1982624.0,1769236114.149
1982198.0,1769236114.19
1981806.0,1769236114.229
1981354.0,1769236114.27
1982127.0,1769236114.31
1982894.0,1769236114.349
1983819.0,1769236114.389
1984748.0,1769236114.43
1985674.0,1769236114.47
1983537.0,1769236114.509
1979336.0,1769236114.55
1975867.0,1769236114.589
1973160.0,1769236114.629
1971890.0,1769236114.672
1971245.0,1769236114.71
1971127.0,1769236114.75
1970920.0,1769236114.791
1970067.0,1769236114.83
1970088.0,1769236114.871
1970317.0,1769236114.911
1971811.0,1769236114.95
1973270.0,1769236114.99
1975246.0,1769236115.031
1978070.0,1769236115.071
1980120.0,1769236115.11
1979249.0,1769236115.151
1978369.0,1769236115.191
1977677.0,1769236115.231
1976960.0,1769236115.273
1975812.0,1769236115.311
1973289.0,1769236115.351
1971426.0,1769236115.392
1968823.0,1769236115.431
1967517.0,1769236115.472
1967351.0,1769236115.512
1966272.0,1769236115.551
1965223.0,1769236115.591
1964114.0,1769236115.632
1962833.0,1769236115.672
1962498.0,1769236115.711
1963133.0,1769236115.753
1961814.0,1769236115.792
1961333.0,1769236115.832
1963026.0,1769236115.873
1967616.0,1769236115.912
1973249.0,1769236115.952
1979585.0,1769236115.993
1985759.0,1769236116.032
1991447.0,1769236116.073
1995216.0,1769236116.113
1997051.0,1769236116.152
1999194.0,1769236116.192
2000885.0,1769236116.233
2001517.0,1769236116.273
2001839.0,1769236116.313
2002621.0,1769236116.354
2003507.0,1769236116.393
2002681.0,1769236116.475
2004491.0,1769236116.433
2000107.0,1769236116.513
1998388.0,1769236116.553
1999605.0,1769236116.633
1998467.0,1769236116.594
2002120.0,1769236116.714
2002275.0,1769236116.754
2002646.0,1769236116.794
2000799.0,1769236116.674
2003171.0,1769236116.835
2003799.0,1769236116.875
2004108.0,1769236116.912
2004604.0,1769236116.951
2005362.0,1769236116.99
2008148.0,1769236117.072
2010688.0,1769236117.151
2008223.0,1769236117.192
2005597.0,1769236117.231
2004070.0,1769236117.272
2004930.0,1769236117.311
2005233.0,1769236117.35
2007048.0,1769236117.39
2006093.0,1769236117.03
2009666.0,1769236117.111
2008946.0,1769236117.432
2010118.0,1769236117.471
2010824.0,1769236117.511
2011339.0,1769236117.552
2012943.0,1769236117.591
2014449.0,1769236117.632
2015980.0,1769236117.672
2018178.0,1769236117.71
2019749.0,1769236117.75
2022354.0,1769236117.792
2024407.0,1769236117.831
2025084.0,1769236117.872
2023837.0,1769236117.912
2022694.0,1769236117.944
2022472.0,1769236117.984
2022556.0,1769236118.026
2023620.0,1769236118.065
2025035.0,1769236118.105
2026031.0,1769236118.146
2026861.0,1769236118.185
2027639.0,1769236118.225
2028929.0,1769236118.267
2030867.0,1769236118.305
2032398.0,1769236118.345
2034304.0,1769236118.387
2035823.0,1769236118.426
2037529.0,1769236118.467
2039694.0,1769236118.507
2040059.0,1769236118.546
2039000.0,1769236118.586
2037970.0,1769236118.627
2038397.0,1769236118.667
2039521.0,1769236118.707
2040949.0,1769236118.749
2042270.0,1769236118.787
2044100.0,1769236118.825
2045114.0,1769236118.864
2046469.0,1769236118.903
2047815.0,1769236118.936
2049581.0,1769236118.977
2051583.0,1769236119.013
2053286.0,1769236119.052
2054453.0,1769236119.093
2054788.0,1769236119.132
2055985.0,1769236119.172
2057671.0,1769236119.214
2058157.0,1769236119.253
2057346.0,1769236119.293
2055769.0,1769236119.334
2054245.0,1769236119.373
2052387.0,1769236119.414
2050943.0,1769236119.453
2051132.0,1769236119.492
2051672.0,1769236119.532
2052288.0,1769236119.574
2052929.0,1769236119.613
2052474.0,1769236119.654
2052205.0,1769236119.694
2051974.0,1769236119.733
2052210.0,1769236119.774
2052659.0,1769236119.813
2053584.0,1769236119.853
2054987.0,1769236119.892
2056380.0,1769236119.934
2056782.0,1769236119.973
2054202.0,1769236120.013
2051585.0,1769236120.055
2048922.0,1769236120.093
2048131.0,1769236120.134
2047680.0,1769236120.175
2048072.0,1769236120.212
2048808.0,1769236120.253
2049578.0,1769236120.294
2050049.0,1769236120.333
2050663.0,1769236120.373
2051369.0,1769236120.414
2052736.0,1769236120.454
2053380.0,1769236120.494
2055171.0,1769236120.535
2056331.0,1769236120.574
2057819.0,1769236120.612
2059511.0,1769236120.654
2060944.0,1769236120.693
2061812.0,1769236120.733
2059841.0,1769236120.774
2057578.0,1769236120.813
2056365.0,1769236120.854
2055374.0,1769236120.895
2054514.0,1769236120.934
2054655.0,1769236120.975
2054405.0,1769236121.014
2054553.0,1769236121.053
2054484.0,1769236121.093
2054998.0,1769236121.134
2056340.0,1769236121.173
2058453.0,1769236121.214
2059618.0,1769236121.256
2060719.0,1769236121.294
2061250.0,1769236121.334
2062109.0,1769236121.375
2063048.0,1769236121.414
2064480.0,1769236121.455
2065956.0,1769236121.494
2064914.0,1769236121.533
2063364.0,1769236121.573
2061573.0,1769236121.615
2059959.0,1769236121.654
2058883.0,1769236121.694
2058460.0,1769236121.735
2059073.0,1769236121.775
2059023.0,1769236121.815
2058960.0,1769236121.855
2058673.0,1769236121.893
2059552.0,1769236121.933
2059651.0,1769236121.975
2060084.0,1769236122.014
2060768.0,1769236122.055
2061716.0,1769236122.095
2062069.0,1769236122.134
2062926.0,1769236122.175
2061722.0,1769236122.214
2057364.0,1769236122.254
2053337.0,1769236122.294
2050169.0,1769236122.341
2048129.0,1769236122.38
2046325.0,1769236122.42
2045810.0,1769236122.462
2045638.0,1769236122.5
2044480.0,1769236122.54
2043577.0,1769236122.581
2042549.0,1769236122.62
2042492.0,1769236122.661
2042724.0,1769236122.702
2043148.0,1769236122.741
2043790.0,1769236122.781
2044612.0,1769236122.822
2045351.0,1769236122.861
2046378.0,1769236122.901
2043723.0,1769236122.942
2039419.0,1769236122.981
2034799.0,1769236123.022
2031086.0,1769236123.061
2028095.0,1769236123.1
2025510.0,1769236123.14
2023528.0,1769236123.181
2022060.0,1769236123.22
2020602.0,1769236123.261
2019418.0,1769236123.302
2018803.0,1769236123.341
2018517.0,1769236123.381
2018089.0,1769236123.423
2017840.0,1769236123.46
2017975.0,1769236123.5
2018237.0,1769236123.541
2018649.0,1769236123.58
2019476.0,1769236123.621
2018479.0,1769236123.663
2013596.0,1769236123.701
2008446.0,1769236123.742
2003691.0,1769236123.783
1999935.0,1769236123.82
1996860.0,1769236123.861
1994570.0,1769236123.901
1993194.0,1769236123.94
1991648.0,1769236123.98
1990487.0,1769236124.021
1989039.0,1769236124.061
1988158.0,1769236124.142
1988052.0,1769236124.101
1987772.0,1769236124.181
1987876.0,1769236124.222
1988198.0,1769236124.264
1988622.0,1769236124.302
1989260.0,1769236124.34
1990059.0,1769236124.382
1988714.0,1769236124.421
1983534.0,1769236124.462
1978391.0,1769236124.502
1971128.0,1769236124.582
1974484.0,1769236124.541
1967741.0,1769236124.663
1967021.0,1769236124.702
1968991.0,1769236124.623
1966187.0,1769236124.741
1964795.0,1769236124.781
1964342.0,1769236124.821
1964066.0,1769236124.863
1964283.0,1769236124.901
1965162.0,1769236124.942
1965862.0,1769236124.983
1966969.0,1769236125.022
1968371.0,1769236125.063
1969565.0,1769236125.103
1969723.0,1769236125.141
1966678.0,1769236125.181
1962540.0,1769236125.222
1960085.0,1769236125.262
1958552.0,1769236125.302
1958302.0,1769236125.343
1958269.0,1769236125.382
1958842.0,1769236125.422
1958612.0,1769236125.464
1958704.0,1769236125.503
1958612.0,1769236125.541
1959341.0,1769236125.582
1961302.0,1769236125.662
1962799.0,1769236125.703
1960499.0,1769236125.621
1964240.0,1769236125.742
1965960.0,1769236125.782
1966568.0,1769236125.824
1960653.0,1769236125.901
1958843.0,1769236125.942
1958096.0,1769236125.981
1963593.0,1769236125.863
1957751.0,1769236126.022
1958423.0,1769236126.064
1959217.0,1769236126.102
1959748.0,1769236126.142
1960193.0,1769236126.183
1961196.0,1769236126.223
1962390.0,1769236126.264
1964244.0,1769236126.302
1967746.0,1769236126.382
1965845.0,1769236126.341
1970225.0,1769236126.423
1972207.0,1769236126.463
1972888.0,1769236126.501
1968127.0,1769236126.623
1971284.0,1769236126.543
1967840.0,1769236126.665
1969123.0,1769236126.582
1968036.0,1769236126.701
1968686.0,1769236126.741
1971140.0,1769236126.822
1972599.0,1769236126.863
1975484.0,1769236126.942
1973712.0,1769236126.903
1977488.0,1769236126.983
1970301.0,1769236126.783
1981734.0,1769236127.064
1983927.0,1769236127.103
1986362.0,1769236127.142
1987325.0,1769236127.182
1986397.0,1769236127.222
1979440.0,1769236127.024
1985937.0,1769236127.264
1985523.0,1769236127.302
1985933.0,1769236127.343
1987006.0,1769236127.384
1988245.0,1769236127.423
1989960.0,1769236127.464
1991260.0,1769236127.504
1992789.0,1769236127.544
1994587.0,1769236127.582
1998546.0,1769236127.663
1996349.0,1769236127.623
2000822.0,1769236127.702
2003030.0,1769236127.744
2005133.0,1769236127.783
2007878.0,1769236127.823
2010140.0,1769236127.865
2011373.0,1769236127.904
2010582.0,1769236127.944
2011072.0,1769236127.983
2011682.0,1769236128.022
2012927.0,1769236128.063
2014212.0,1769236128.103
2016346.0,1769236128.143
2018132.0,1769236128.183
2019911.0,1769236128.224
2021400.0,1769236128.264
2023731.0,1769236128.304
2025510.0,1769236128.345
2027449.0,1769236128.384
2032390.0,1769236128.464
2029778.0,1769236128.422
2034587.0,1769236128.503
2037048.0,1769236128.543
2039336.0,1769236128.623
2038913.0,1769236128.584
2038900.0,1769236128.664
2039383.0,1769236128.705
2040271.0,1769236128.744
2041692.0,1769236128.784
2043152.0,1769236128.823
2044859.0,1769236128.863
2047167.0,1769236128.944
2045922.0,1769236128.903
2048727.0,1769236128.983
2050115.0,1769236129.023
2051548.0,1769236129.062
2052921.0,1769236129.101
2054797.0,1769236129.142
2056221.0,1769236129.183
2058100.0,1769236129.222
2059684.0,1769236129.263
2059349.0,1769236129.304
2058631.0,1769236129.343
2058331.0,1769236129.383
2059180.0,1769236129.424
2059925.0,1769236129.464
2060823.0,1769236129.504
2062106.0,1769236129.545
2063199.0,1769236129.584
2064111.0,1769236129.625
2065500.0,1769236129.664
2066549.0,1769236129.703
2068370.0,1769236129.743
2069621.0,1769236129.784
2071294.0,1769236129.824
2072715.0,1769236129.865
2074281.0,1769236129.905
2076111.0,1769236129.944
2077814.0,1769236129.985
2078382.0,1769236130.026
2077327.0,1769236130.066
2076232.0,1769236130.103
2076186.0,1769236130.144
2076315.0,1769236130.183
2076333.0,1769236130.224
2077353.0,1769236130.266
2078324.0,1769236130.304
2080285.0,1769236130.386
2079498.0,1769236130.344
2080965.0,1769236130.425
2082379.0,1769236130.466
2083241.0,1769236130.506
2084706.0,1769236130.543
2086259.0,1769236130.583
2087488.0,1769236130.625
2089056.0,1769236130.665
2090233.0,1769236130.704
2092053.0,1769236130.745
2091051.0,1769236130.825
2092355.0,1769236130.785
2090425.0,1769236130.867
2089881.0,1769236130.905
2089654.0,1769236130.943
2089849.0,1769236130.985
2090280.0,1769236131.024
2091059.0,1769236131.065
2091662.0,1769236131.105
2092031.0,1769236131.144
2093490.0,1769236131.226
2092999.0,1769236131.185
2094500.0,1769236131.266
2095594.0,1769236131.305
2096815.0,1769236131.347
2099390.0,1769236131.424
2100370.0,1769236131.466
2102027.0,1769236131.504
2097934.0,1769236131.384
2102971.0,1769236131.545
2104055.0,1769236131.585
2102516.0,1769236131.622
2100950.0,1769236131.663
2099933.0,1769236131.703
2099546.0,1769236131.743
2099337.0,1769236131.783
2099863.0,1769236131.825
2100148.0,1769236131.864
2100678.0,1769236131.904
2101772.0,1769236131.984
2100894.0,1769236131.945
2104018.0,1769236132.105
2104809.0,1769236132.145
2105785.0,1769236132.187
2106870.0,1769236132.226
2107884.0,1769236132.267
2109217.0,1769236132.305
2110300.0,1769236132.344
2102862.0,1769236132.067
2101854.0,1769236132.025
2110936.0,1769236132.385
2110162.0,1769236132.426
2106399.0,1769236132.505
2104715.0,1769236132.586
2104960.0,1769236132.626
2104771.0,1769236132.668
2105044.0,1769236132.704
2105335.0,1769236132.744
2106100.0,1769236132.786
2108210.0,1769236132.825
2110412.0,1769236132.866
2113296.0,1769236132.906
2115339.0,1769236132.945
2117237.0,1769236132.986
2118687.0,1769236133.027
2119575.0,1769236133.067
2120834.0,1769236133.106
2121509.0,1769236133.146
2120492.0,1769236133.185
2108039.0,1769236132.466
2105273.0,1769236132.546
2118964.0,1769236133.225
2117170.0,1769236133.267
2116263.0,1769236133.346
2116629.0,1769236133.305
2116302.0,1769236133.387
2116841.0,1769236133.426
2116410.0,1769236133.467
2116915.0,1769236133.507
2116831.0,1769236133.547
2116821.0,1769236133.585
2117756.0,1769236133.626
2118532.0,1769236133.706
2120382.0,1769236133.786
2121448.0,1769236133.826
2121807.0,1769236133.868
2120414.0,1769236133.907
2119523.0,1769236133.747
2118141.0,1769236133.666
2117197.0,1769236133.947
2113221.0,1769236134.025
2115400.0,1769236133.986
2112268.0,1769236134.066
2111065.0,1769236134.107
2111036.0,1769236134.146
2110404.0,1769236134.224
2110778.0,1769236134.183
2109707.0,1769236134.304
2110019.0,1769236134.264
2109668.0,1769236134.347
2109970.0,1769236134.386
2110567.0,1769236134.426
2110826.0,1769236134.468
2111856.0,1769236134.506
2112216.0,1769236134.546
2113242.0,1769236134.587
2112177.0,1769236134.626
2109009.0,1769236134.667
2105797.0,1769236134.707
2103061.0,1769236134.746
2101180.0,1769236134.786
2099929.0,1769236134.828
2099132.0,1769236134.867
2098411.0,1769236134.907
2097566.0,1769236134.948
2096749.0,1769236134.987
2096606.0,1769236135.027
2096219.0,1769236135.069
2096547.0,1769236135.107
2096521.0,1769236135.147
2096979.0,1769236135.188
2097636.0,1769236135.227
2098178.0,1769236135.268
2099014.0,1769236135.309
2095340.0,1769236135.388
2091967.0,1769236135.429
2089364.0,1769236135.468
2086896.0,1769236135.508
2098810.0,1769236135.348
2085285.0,1769236135.549
2084474.0,1769236135.588
2083800.0,1769236135.628
2083346.0,1769236135.67
2082211.0,1769236135.708
2081921.0,1769236135.748
2081773.0,1769236135.789
2081803.0,1769236135.829
2082155.0,1769236135.869
2083096.0,1769236135.91
2083578.0,1769236135.949
2084592.0,1769236135.989
2084735.0,1769236136.03
2082395.0,1769236136.07
2079071.0,1769236136.109
2076029.0,1769236136.15
2074093.0,1769236136.189
2072837.0,1769236136.229
2071942.0,1769236136.271
2071408.0,1769236136.309
2070759.0,1769236136.35
2069264.0,1769236136.391
2068468.0,1769236136.43
2068284.0,1769236136.471
2068023.0,1769236136.511
2067863.0,1769236136.55
2068233.0,1769236136.59
2068801.0,1769236136.631
2068757.0,1769236136.671
2065547.0,1769236136.71
2061221.0,1769236136.751
2056946.0,1769236136.79
2054367.0,1769236136.831
2051878.0,1769236136.872
2050604.0,1769236136.911
2049807.0,1769236136.951
2047243.0,1769236137.031
2045147.0,1769236137.112
2045256.0,1769236137.151
2045264.0,1769236137.232
2048507.0,1769236136.992
2046045.0,1769236137.072
2045179.0,1769236137.191
2045338.0,1769236137.272
2045470.0,1769236137.311
2045448.0,1769236137.352
2041302.0,1769236137.392
2036680.0,1769236137.432
2032079.0,1769236137.473
2029095.0,1769236137.512
2026980.0,1769236137.552
2025037.0,1769236137.593
2024166.0,1769236137.632
2023471.0,1769236137.673
2022441.0,1769236137.752
2022861.0,1769236137.713
2022484.0,1769236137.792
2022661.0,1769236137.833
2023397.0,1769236137.873
2023820.0,1769236137.913
2024904.0,1769236137.954
2025009.0,1769236137.993
2025651.0,1769236138.033
2025665.0,1769236138.075
2022880.0,1769236138.113
2018098.0,1769236138.153
2014181.0,1769236138.194
2011537.0,1769236138.233
2007595.0,1769236138.314
2005902.0,1769236138.394
2005099.0,1769236138.435
2004403.0,1769236138.474
2004656.0,1769236138.555
2004857.0,1769236138.594
2006013.0,1769236138.634
2006654.0,1769236138.676
2004058.0,1769236138.514
2007486.0,1769236138.714
2008323.0,1769236138.754
2009514.0,1769236138.795
2009101.0,1769236138.274
2006839.0,1769236138.353
2011018.0,1769236138.834
2011660.0,1769236138.875
2009646.0,1769236138.916
2005787.0,1769236138.995
2007199.0,1769236138.955
2005127.0,1769236139.036
2004273.0,1769236139.076
2004647.0,1769236139.115
2004962.0,1769236139.157
2004948.0,1769236139.191
2004287.0,1769236139.229
2004158.0,1769236139.271
2004627.0,1769236139.308
2004862.0,1769236139.349
2005990.0,1769236139.391
2007145.0,1769236139.43
2008524.0,1769236139.471
2009412.0,1769236139.511
2011013.0,1769236139.551
2012471.0,1769236139.59
2013274.0,1769236139.631
2011498.0,1769236139.671
2009723.0,1769236139.711
2008590.0,1769236139.75
2008610.0,1769236139.789
2008762.0,1769236139.83
2009777.0,1769236139.871
2010894.0,1769236139.91
2011345.0,1769236139.95
2012282.0,1769236139.992
2012985.0,1769236140.031
2014414.0,1769236140.072
2015575.0,1769236140.11
2017263.0,1769236140.149
2018829.0,1769236140.19
2020720.0,1769236140.231
2022635.0,1769236140.27
2024354.0,1769236140.309
2024632.0,1769236140.351
2023099.0,1769236140.391
2022006.0,1769236140.431
2021780.0,1769236140.473
2021619.0,1769236140.509
2022064.0,1769236140.549
2023568.0,1769236140.59
2024503.0,1769236140.63
2025183.0,1769236140.671
2026399.0,1769236140.711
2027212.0,1769236140.75
2029204.0,1769236140.791
2030455.0,1769236140.832
2032366.0,1769236140.872
2034253.0,1769236140.911
2035783.0,1769236140.951
2038045.0,1769236140.99
2039846.0,1769236141.03
2041371.0,1769236141.072
2040305.0,1769236141.111
2038822.0,1769236141.151
2038351.0,1769236141.192
2038082.0,1769236141.231
2037989.0,1769236141.272
2038531.0,1769236141.311
2039373.0,1769236141.35
2040611.0,1769236141.39
2041460.0,1769236141.431
2042321.0,1769236141.471
2043822.0,1769236141.51
2044931.0,1769236141.552
2046736.0,1769236141.591
2048400.0,1769236141.631
2049889.0,1769236141.673
2051544.0,1769236141.712
2053545.0,1769236141.75
2055367.0,1769236141.791
2057221.0,1769236141.83
2056889.0,1769236141.871
2055116.0,1769236141.911
2054737.0,1769236141.95
2054161.0,1769236141.991
2054709.0,1769236142.032
2055153.0,1769236142.072
2056170.0,1769236142.112
2057153.0,1769236142.153
2058425.0,1769236142.192
2059116.0,1769236142.23
2060350.0,1769236142.272
2061804.0,1769236142.311
2063313.0,1769236142.351
2064669.0,1769236142.392
2066634.0,1769236142.431
2068299.0,1769236142.472
2069859.0,1769236142.513
2071785.0,1769236142.552
2073644.0,1769236142.592
2073691.0,1769236142.633
2072279.0,1769236142.673
2070740.0,1769236142.711
2071108.0,1769236142.752
2070847.0,1769236142.791
2071385.0,1769236142.831
2072543.0,1769236142.873
2073236.0,1769236142.912
2074091.0,1769236142.952
2074330.0,1769236142.993
2075499.0,1769236143.033
2076688.0,1769236143.071
2077679.0,1769236143.112
2079067.0,1769236143.151
2080295.0,1769236143.191
2081729.0,1769236143.233
2082989.0,1769236143.273
2084540.0,1769236143.312
2085540.0,1769236143.353
2084805.0,1769236143.393
2082865.0,1769236143.431
2081589.0,1769236143.473
2081457.0,1769236143.511
2081727.0,1769236143.551
2082025.0,1769236143.592
2082821.0,1769236143.631
2083209.0,1769236143.672
2083605.0,1769236143.713
2084267.0,1769236143.752
2085217.0,1769236143.792
2085903.0,1769236143.834
2087208.0,1769236143.874
2088606.0,1769236143.911
2089547.0,1769236143.952
2090835.0,1769236143.992
2092504.0,1769236144.032
2091766.0,1769236144.112
2093249.0,1769236144.074
2090655.0,1769236144.153
2089505.0,1769236144.194
2089672.0,1769236144.233
2089684.0,1769236144.272
2090428.0,1769236144.313
2091813.0,1769236144.352
2092372.0,1769236144.391
2093301.0,1769236144.432
2093747.0,1769236144.472
2094859.0,1769236144.512
2095409.0,1769236144.553
2096813.0,1769236144.592
2098287.0,1769236144.633
2099465.0,1769236144.675
2100812.0,1769236144.713
2102670.0,1769236144.753
2104089.0,1769236144.793
2105130.0,1769236144.832
2103431.0,1769236144.873
2101062.0,1769236144.913
2099578.0,1769236144.953
2099223.0,1769236144.993
2098402.0,1769236145.034
2098598.0,1769236145.074
2098682.0,1769236145.114
2099390.0,1769236145.153
2099408.0,1769236145.192
2099755.0,1769236145.232
2100744.0,1769236145.274
2101226.0,1769236145.313
2102641.0,1769236145.353
2103701.0,1769236145.394
2104577.0,1769236145.433
2106073.0,1769236145.474
2107026.0,1769236145.513
2108555.0,1769236145.552
2109458.0,1769236145.592
2109735.0,1769236145.633
2106881.0,1769236145.673
2104104.0,1769236145.713
2101875.0,1769236145.754
2100089.0,1769236145.793
2099023.0,1769236145.833
2098543.0,1769236145.875
2098093.0,1769236145.914
2097950.0,1769236145.954
2096678.0,1769236145.993
2096857.0,1769236146.032
2096421.0,1769236146.073
2096805.0,1769236146.114
2096790.0,1769236146.153
2097652.0,1769236146.193
2098043.0,1769236146.235
2098650.0,1769236146.275
2099147.0,1769236146.314
2099624.0,1769236146.349
2097261.0,1769236146.388
2093159.0,1769236146.428
2090288.0,1769236146.469
2088059.0,1769236146.508
2086799.0,1769236146.548
2085794.0,1769236146.589
2085085.0,1769236146.628
2084319.0,1769236146.669
2083257.0,1769236146.709
2082433.0,1769236146.748
2082165.0,1769236146.788
2082410.0,1769236146.829
2082125.0,1769236146.869
2082113.0,1769236146.909
2082536.0,1769236146.95
2083220.0,1769236146.989
2083415.0,1769236147.029
2081354.0,1769236147.071
2077389.0,1769236147.109
2072932.0,1769236147.149
2070047.0,1769236147.19
2067689.0,1769236147.23
2065996.0,1769236147.269
2064944.0,1769236147.308
2064016.0,1769236147.347
2061529.0,1769236147.428
2062894.0,1769236147.387
2060823.0,1769236147.507
2060739.0,1769236147.468
2060689.0,1769236147.588
2060255.0,1769236147.549
2060641.0,1769236147.628
2060979.0,1769236147.67
2061536.0,1769236147.709
2062230.0,1769236147.747
2062492.0,1769236147.788
2059293.0,1769236147.828
2055793.0,1769236147.869
2053053.0,1769236147.909
2051439.0,1769236147.948
2050409.0,1769236147.989
2049472.0,1769236148.03
2049389.0,1769236148.07
2049251.0,1769236148.107
2048989.0,1769236148.148
2048992.0,1769236148.188
2049308.0,1769236148.228
2049398.0,1769236148.27
2049213.0,1769236148.309
2050119.0,1769236148.349
2051283.0,1769236148.39
2053053.0,1769236148.429
2055888.0,1769236148.468
2059138.0,1769236148.509
2061963.0,1769236148.548
2060718.0,1769236148.588
2056805.0,1769236148.63
2052945.0,1769236148.67
2051191.0,1769236148.709
2049833.0,1769236148.75
2049773.0,1769236148.788
2049598.0,1769236148.828
2050201.0,1769236148.87
2050290.0,1769236148.908
2050358.0,1769236148.949
2050992.0,1769236148.99
2051870.0,1769236149.029
2052244.0,1769236149.07
2053031.0,1769236149.111
2052678.0,1769236149.148
2052970.0,1769236149.188
2053860.0,1769236149.229
2054659.0,1769236149.269
2052751.0,1769236149.309
2048226.0,1769236149.35
2044158.0,1769236149.389
2042432.0,1769236149.43
2040361.0,1769236149.472
2039456.0,1769236149.508
2039067.0,1769236149.547
2038772.0,1769236149.589
2038322.0,1769236149.629
2037896.0,1769236149.67
2037978.0,1769236149.71
2038574.0,1769236149.749
2039882.0,1769236149.79
2041266.0,1769236149.831
2042780.0,1769236149.869
2043923.0,1769236149.909
2044995.0,1769236149.95
2043411.0,1769236149.989
2040896.0,1769236150.029
2039076.0,1769236150.071
2037865.0,1769236150.11
2037204.0,1769236150.15
2037585.0,1769236150.191
2040315.0,1769236150.269
2039333.0,1769236150.228
2041850.0,1769236150.349
2040827.0,1769236150.31
2044685.0,1769236150.431
2043003.0,1769236150.39
2045974.0,1769236150.471
2048051.0,1769236150.51
2050521.0,1769236150.551
2052112.0,1769236150.589
2052045.0,1769236150.629
2049587.0,1769236150.671
2047540.0,1769236150.709
2047106.0,1769236150.75
2047507.0,1769236150.791
2048788.0,1769236150.83
2050263.0,1769236150.871
2051004.0,1769236150.91
2051100.0,1769236150.949
2050745.0,1769236150.989
2051971.0,1769236151.031
2053263.0,1769236151.07
2054859.0,1769236151.11
2055538.0,1769236151.151
2056306.0,1769236151.191
2057229.0,1769236151.231
2055950.0,1769236151.271
2054287.0,1769236151.309
2054176.0,1769236151.35
2055529.0,1769236151.391
2056269.0,1769236151.43
2058090.0,1769236151.471
2060170.0,1769236151.512
2061537.0,1769236151.551
2062968.0,1769236151.591
2064522.0,1769236151.63
2066221.0,1769236151.67
2067598.0,1769236151.71
2069173.0,1769236151.751
2070643.0,1769236151.79
2072577.0,1769236151.831
2073484.0,1769236151.872
2071920.0,1769236151.911
2070544.0,1769236151.951
2070389.0,1769236151.99
2071007.0,1769236152.029
2071227.0,1769236152.073
2071938.0,1769236152.113
2073219.0,1769236152.152
2074230.0,1769236152.192
2074846.0,1769236152.234
2076308.0,1769236152.272
2077282.0,1769236152.31
2079036.0,1769236152.351
2080719.0,1769236152.39
2082346.0,1769236152.43
2084285.0,1769236152.472
2085669.0,1769236152.511
2085444.0,1769236152.551
2084072.0,1769236152.592
2082454.0,1769236152.63
2082402.0,1769236152.671
2082378.0,1769236152.711
2082833.0,1769236152.75
2083880.0,1769236152.791
2085293.0,1769236152.832
2087116.0,1769236152.912
2086396.0,1769236152.872
2088002.0,1769236152.953
2089982.0,1769236152.99
2090956.0,1769236153.03
2092787.0,1769236153.072
2093949.0,1769236153.11
2095608.0,1769236153.151
2097036.0,1769236153.192
2098952.0,1769236153.231
2100073.0,1769236153.272
2099346.0,1769236153.313
2098009.0,1769236153.35
2097619.0,1769236153.39
2097870.0,1769236153.432
2098607.0,1769236153.471
2099737.0,1769236153.511
2100844.0,1769236153.552
2103445.0,1769236153.632
2103938.0,1769236153.672
2105013.0,1769236153.71
2102446.0,1769236153.592
2105909.0,1769236153.751
2107275.0,1769236153.792
2110153.0,1769236153.872
2108484.0,1769236153.831
2111028.0,1769236153.913
2112075.0,1769236153.952
2113502.0,1769236153.992
2114858.0,1769236154.031
2114280.0,1769236154.071
2113684.0,1769236154.111
2113874.0,1769236154.152
2115487.0,1769236154.232
2114381.0,1769236154.191
2116737.0,1769236154.274
2118149.0,1769236154.312
2119279.0,1769236154.351
2120561.0,1769236154.392
2121743.0,1769236154.431
2122791.0,1769236154.472
2124107.0,1769236154.512
2125715.0,1769236154.552
2127386.0,1769236154.592
2129024.0,1769236154.633
2130586.0,1769236154.673
2132066.0,1769236154.711
2134004.0,1769236154.752
2134799.0,1769236154.791
2134199.0,1769236154.831
2133686.0,1769236154.873
2133677.0,1769236154.912
2134464.0,1769236154.952
2135155.0,1769236154.994
2136627.0,1769236155.033
2137564.0,1769236155.072
2137971.0,1769236155.112
2138308.0,1769236155.151
2139229.0,1769236155.192
2140004.0,1769236155.233
2141098.0,1769236155.273
2142230.0,1769236155.312
2143573.0,1769236155.354
2145115.0,1769236155.393
2146215.0,1769236155.431
2147445.0,1769236155.473
2147788.0,1769236155.511
2147669.0,1769236155.552
2147637.0,1769236155.593
2148614.0,1769236155.632
2149745.0,1769236155.673
2151433.0,1769236155.714
2152765.0,1769236155.751
2153974.0,1769236155.792
2155191.0,1769236155.833
2155915.0,1769236155.873
2157406.0,1769236155.912
2158533.0,1769236155.953
2160354.0,1769236155.993
2161390.0,1769236156.033
2162881.0,1769236156.075
2163539.0,1769236156.111
2162322.0,1769236156.152
2161284.0,1769236156.193
2160343.0,1769236156.232
2160663.0,1769236156.273
2160956.0,1769236156.314
2161760.0,1769236156.353
2162728.0,1769236156.393
2163681.0,1769236156.434
2164048.0,1769236156.472
2165146.0,1769236156.512
2166340.0,1769236156.553
2167527.0,1769236156.592
2168651.0,1769236156.633
2170095.0,1769236156.675
2171302.0,1769236156.713
2172056.0,1769236156.754
2170936.0,1769236156.793
2168560.0,1769236156.832
2167426.0,1769236156.873
2167014.0,1769236156.913
2166406.0,1769236156.953
2166415.0,1769236156.993
2166533.0,1769236157.034
2166436.0,1769236157.074
2166595.0,1769236157.114
2166916.0,1769236157.153
2166930.0,1769236157.193
2167721.0,1769236157.23
2168200.0,1769236157.273
2168562.0,1769236157.312
2169609.0,1769236157.352
2170118.0,1769236157.393
2170582.0,1769236157.432
2169193.0,1769236157.473
2166210.0,1769236157.514
2163899.0,1769236157.553
2162300.0,1769236157.594
2161146.0,1769236157.635
2160128.0,1769236157.673
2159768.0,1769236157.712
2159216.0,1769236157.754
2158286.0,1769236157.793
2157820.0,1769236157.833
2157684.0,1769236157.875
2157322.0,1769236157.914
2157605.0,1769236157.954
2157941.0,1769236157.995
2158149.0,1769236158.032
2158744.0,1769236158.073
2158774.0,1769236158.114
2159759.0,1769236158.153
2158108.0,1769236158.193
2154620.0,1769236158.235
2151599.0,1769236158.274
2149069.0,1769236158.314
2147173.0,1769236158.359
2145954.0,1769236158.399
2145173.0,1769236158.439
2144256.0,1769236158.48
2142993.0,1769236158.519
2142336.0,1769236158.559
2141096.0,1769236158.6
2140876.0,1769236158.639
2140553.0,1769236158.68
2140354.0,1769236158.72
2140293.0,1769236158.759
2140537.0,1769236158.799
2140907.0,1769236158.839
2140630.0,1769236158.879
2138064.0,1769236158.918
2134655.0,1769236158.959
2131328.0,1769236158.999
2128755.0,1769236159.039
2127059.0,1769236159.081
2126353.0,1769236159.119
2125153.0,1769236159.16
2124285.0,1769236159.199
2122769.0,1769236159.238
2121855.0,1769236159.279
2121402.0,1769236159.319
2120919.0,1769236159.359
2121097.0,1769236159.398
2120737.0,1769236159.439
2121119.0,1769236159.479
2121166.0,1769236159.519
2120831.0,1769236159.56
2117789.0,1769236159.599
2113727.0,1769236159.64
2109792.0,1769236159.68
2107250.0,1769236159.718
2105145.0,1769236159.758
2103333.0,1769236159.799
2102647.0,1769236159.838
2101420.0,1769236159.878
2100200.0,1769236159.92
2099057.0,1769236159.959
2098241.0,1769236159.999
2098342.0,1769236160.04
2098306.0,1769236160.08
2098277.0,1769236160.12
2099042.0,1769236160.161
2099368.0,1769236160.198
2100575.0,1769236160.239
2101211.0,1769236160.281
2099805.0,1769236160.319
2096343.0,1769236160.359
2092320.0,1769236160.401
2089258.0,1769236160.44
2086941.0,1769236160.481
2084971.0,1769236160.521
2083877.0,1769236160.558
2082898.0,1769236160.598
2081724.0,1769236160.639
2081087.0,1769236160.679
2080211.0,1769236160.719
2080153.0,1769236160.76
2080696.0,1769236160.799
2081571.0,1769236160.84
2083186.0,1769236160.882
2084364.0,1769236160.92
2086551.0,1769236160.96
2089243.0,1769236161.0
2091184.0,1769236161.039
2093596.0,1769236161.08
2092688.0,1769236161.16
2094665.0,1769236161.121
2086359.0,1769236161.241
2089516.0,1769236161.2
2082771.0,1769236161.281
2079926.0,1769236161.321
2077033.0,1769236161.36
2075507.0,1769236161.399
2072289.0,1769236161.481
2071301.0,1769236161.52
2073515.0,1769236161.439
2070356.0,1769236161.559
2069856.0,1769236161.601
2069044.0,1769236161.64
2068908.0,1769236161.681
2069066.0,1769236161.721
2069178.0,1769236161.761
2070012.0,1769236161.801
2070796.0,1769236161.84
2071678.0,1769236161.88
2072028.0,1769236161.961
2072746.0,1769236161.92
2069582.0,1769236162.0
2066924.0,1769236162.04
2066292.0,1769236162.082
2065579.0,1769236162.121
2065890.0,1769236162.161
2066540.0,1769236162.2
2066910.0,1769236162.24
2067402.0,1769236162.28
2067402.0,1769236162.315
2067912.0,1769236162.354
2068783.0,1769236162.394
2069735.0,1769236162.435
2070968.0,1769236162.475
2072486.0,1769236162.514
2073637.0,1769236162.556
2075218.0,1769236162.595
2076808.0,1769236162.635
2078466.0,1769236162.677
2079198.0,1769236162.715
2078206.0,1769236162.755
2076869.0,1769236162.796
2075931.0,1769236162.835
2075853.0,1769236162.876
2075758.0,1769236162.916
2076738.0,1769236162.955
2076613.0,1769236162.989
2076270.0,1769236163.022
2075864.0,1769236163.06
2075666.0,1769236163.099
2076432.0,1769236163.14
2077171.0,1769236163.18
2078290.0,1769236163.22
2079682.0,1769236163.262
2080784.0,1769236163.3
2082039.0,1769236163.341
2083091.0,1769236163.382
2083031.0,1769236163.419
2080605.0,1769236163.46
2078134.0,1769236163.501
2076612.0,1769236163.54
2076033.0,1769236163.58
2075669.0,1769236163.622
2075759.0,1769236163.662
2076342.0,1769236163.701
2076493.0,1769236163.74
2076821.0,1769236163.78
2077273.0,1769236163.82
2078183.0,1769236163.862
2078935.0,1769236163.9
2080327.0,1769236163.941
2081254.0,1769236163.982
2082299.0,1769236164.021
2083354.0,1769236164.062
2084860.0,1769236164.101
2086181.0,1769236164.14
2086878.0,1769236164.18
2085184.0,1769236164.221
2082629.0,1769236164.261
2081173.0,1769236164.301
2080123.0,1769236164.342
2079815.0,1769236164.381
2079388.0,1769236164.422
2080000.0,1769236164.461
2080172.0,1769236164.5
2080755.0,1769236164.54
2080646.0,1769236164.582
2081236.0,1769236164.621
2082244.0,1769236164.662
2083577.0,1769236164.703
2084376.0,1769236164.742
2085774.0,1769236164.78
2087019.0,1769236164.821
2087998.0,1769236164.861
2089468.0,1769236164.9
2090899.0,1769236164.941
2092308.0,1769236164.981
2091438.0,1769236165.021
2088546.0,1769236165.063
2087102.0,1769236165.101
2085856.0,1769236165.142
2085670.0,1769236165.183
2085269.0,1769236165.22
2085905.0,1769236165.261
2085922.0,1769236165.302
2086432.0,1769236165.341
2086428.0,1769236165.381
2086874.0,1769236165.422
2087711.0,1769236165.462
2088615.0,1769236165.502
2089454.0,1769236165.543
2090769.0,1769236165.58
2091574.0,1769236165.621
2093132.0,1769236165.663
2094723.0,1769236165.701
2095780.0,1769236165.742
2096132.0,1769236165.783
2094498.0,1769236165.822
2092197.0,1769236165.863
2091120.0,1769236165.902
2091170.0,1769236165.941
2091317.0,1769236165.981
2091665.0,1769236166.022
2092268.0,1769236166.062
2092419.0,1769236166.102
2092660.0,1769236166.143
2093009.0,1769236166.182
2093992.0,1769236166.223
2094633.0,1769236166.262
2095832.0,1769236166.301
2097123.0,1769236166.341
2098083.0,1769236166.383
2099325.0,1769236166.422
2100859.0,1769236166.463
2101244.0,1769236166.503
2099070.0,1769236166.543
2097079.0,1769236166.583
2095332.0,1769236166.622
2094789.0,1769236166.662
2094737.0,1769236166.701
2094899.0,1769236166.743
2095726.0,1769236166.782
2095599.0,1769236166.822
2096057.0,1769236166.864
2096379.0,1769236166.903
2097155.0,1769236166.943
2097783.0,1769236166.982
2098990.0,1769236167.021
2100177.0,1769236167.062
2101596.0,1769236167.103
2102382.0,1769236167.142
2103723.0,1769236167.182
2105579.0,1769236167.224
2107046.0,1769236167.263
2106865.0,1769236167.303
2104259.0,1769236167.342
2102120.0,1769236167.382
2100829.0,1769236167.422
2099802.0,1769236167.464
2099550.0,1769236167.502
2099103.0,1769236167.542
2099794.0,1769236167.584
2099478.0,1769236167.623
2099779.0,1769236167.664
2099732.0,1769236167.702
2100221.0,1769236167.742
2101272.0,1769236167.782
2102005.0,1769236167.823
2103292.0,1769236167.863
2104941.0,1769236167.903
2106868.0,1769236167.944
2108772.0,1769236167.983
2110698.0,1769236168.023
2111510.0,1769236168.063
2109706.0,1769236168.102
2107726.0,1769236168.142
2107459.0,1769236168.183
2108247.0,1769236168.223
2109867.0,1769236168.264
2111688.0,1769236168.304
2114548.0,1769236168.343
2116326.0,1769236168.384
2117711.0,1769236168.423
2118693.0,1769236168.463
2120049.0,1769236168.502
2120915.0,1769236168.544
2121685.0,1769236168.583
2122465.0,1769236168.623
2123026.0,1769236168.665
2123576.0,1769236168.704
2123948.0,1769236168.742
2125245.0,1769236168.783
2125611.0,1769236168.823
2126700.0,1769236168.864
2127985.0,1769236168.904
2126801.0,1769236168.943
2124951.0,1769236168.984
2123744.0,1769236169.025
2123432.0,1769236169.065
2122331.0,1769236169.102
2122060.0,1769236169.144
2121831.0,1769236169.183
2121465.0,1769236169.223
2120833.0,1769236169.265
2120782.0,1769236169.304
2120987.0,1769236169.344
2120836.0,1769236169.385
2121670.0,1769236169.424
2122067.0,1769236169.463
2122253.0,1769236169.504
2122815.0,1769236169.543
2123447.0,1769236169.583
2124397.0,1769236169.625
2125126.0,1769236169.665
2125512.0,1769236169.704
2124022.0,1769236169.745
2121833.0,1769236169.783
2121143.0,1769236169.823
2120722.0,1769236169.865
2120696.0,1769236169.903
2121159.0,1769236169.944
2121742.0,1769236169.985
2122182.0,1769236170.022
2122357.0,1769236170.063
2122745.0,1769236170.104
2123660.0,1769236170.143
2124102.0,1769236170.183
2124968.0,1769236170.224
2126302.0,1769236170.264
2127406.0,1769236170.304
2128681.0,1769236170.338
2129999.0,1769236170.377
2129854.0,1769236170.418
2128447.0,1769236170.459
2127244.0,1769236170.498
2127120.0,1769236170.538
2127192.0,1769236170.579
2127640.0,1769236170.618
2128549.0,1769236170.659
2128926.0,1769236170.699
2129100.0,1769236170.738
2129849.0,1769236170.778
2130457.0,1769236170.817
2131600.0,1769236170.857
2132402.0,1769236170.897
2133644.0,1769236170.938
2134950.0,1769236170.977
2135881.0,1769236171.018
2137325.0,1769236171.059
2137972.0,1769236171.098
2136449.0,1769236171.138
2135684.0,1769236171.177
2135327.0,1769236171.217
2135675.0,1769236171.258
2135651.0,1769236171.298
2136696.0,1769236171.337
2137063.0,1769236171.378
2138168.0,1769236171.419
2138587.0,1769236171.459
2139051.0,1769236171.499
2140085.0,1769236171.538
2141573.0,1769236171.577
2142720.0,1769236171.617
2144049.0,1769236171.659
2146293.0,1769236171.698
2147842.0,1769236171.738
2149089.0,1769236171.779
2150130.0,1769236171.819
2149992.0,1769236171.858
2149058.0,1769236171.898
2148583.0,1769236171.937
2148441.0,1769236171.978
2148454.0,1769236172.019
2149260.0,1769236172.059
2149797.0,1769236172.098
2150619.0,1769236172.14
2151532.0,1769236172.179
2151804.0,1769236172.217
2152931.0,1769236172.259
2153487.0,1769236172.298
2154534.0,1769236172.338
2155725.0,1769236172.379
2156838.0,1769236172.418
2157474.0,1769236172.459
2158534.0,1769236172.5
2159767.0,1769236172.539
2161040.0,1769236172.579
2161505.0,1769236172.62
2160055.0,1769236172.66
2159430.0,1769236172.697
2159398.0,1769236172.739
2159607.0,1769236172.778
2159657.0,1769236172.818
2160654.0,1769236172.86
2161120.0,1769236172.899
2161774.0,1769236172.939
2162310.0,1769236172.98
2162940.0,1769236173.019
2164134.0,1769236173.058
2164877.0,1769236173.099
2165812.0,1769236173.138
2166771.0,1769236173.178
2167909.0,1769236173.219
2168784.0,1769236173.259
2169840.0,1769236173.299
2171247.0,1769236173.34
2171005.0,1769236173.38
2169913.0,1769236173.418
2169509.0,1769236173.46
2169171.0,1769236173.498
2169650.0,1769236173.538
2170361.0,1769236173.58
2170965.0,1769236173.619
2171439.0,1769236173.66
2172023.0,1769236173.701
2172471.0,1769236173.738
2173239.0,1769236173.778
2173920.0,1769236173.819
2175269.0,1769236173.859
2176120.0,1769236173.899
2177273.0,1769236173.94
2177988.0,1769236173.979
2179107.0,1769236174.02
2180418.0,1769236174.062
2180547.0,1769236174.098
2179373.0,1769236174.138
2177894.0,1769236174.18
2176860.0,1769236174.219
2176486.0,1769236174.26
2176156.0,1769236174.3
2176014.0,1769236174.34
2176646.0,1769236174.38
2176865.0,1769236174.421
2176798.0,1769236174.459
2177245.0,1769236174.498
2177324.0,1769236174.54
2178097.0,1769236174.579
2178734.0,1769236174.619
2179414.0,1769236174.661
2180205.0,1769236174.7
2180811.0,1769236174.74
2181515.0,1769236174.779
2182394.0,1769236174.819
2182984.0,1769236174.86
2183653.0,1769236174.9
2181665.0,1769236174.939
2179385.0,1769236174.98
2177547.0,1769236175.021
2176388.0,1769236175.061
2175076.0,1769236175.1
2174145.0,1769236175.141
2173827.0,1769236175.18
2173429.0,1769236175.22
2172698.0,1769236175.262
2172451.0,1769236175.3
2171765.0,1769236175.34
2171894.0,1769236175.381
2171599.0,1769236175.421
2172022.0,1769236175.459
2172302.0,1769236175.5
2172570.0,1769236175.539
2172878.0,1769236175.58
2173135.0,1769236175.621
2173567.0,1769236175.661
2174325.0,1769236175.7
2173225.0,1769236175.742
2170875.0,1769236175.781
2168189.0,1769236175.819
2166837.0,1769236175.861
2165788.0,1769236175.899
2165013.0,1769236175.94
2164464.0,1769236175.981
2163954.0,1769236176.02
2163599.0,1769236176.061
2162655.0,1769236176.102
2162639.0,1769236176.141
2162206.0,1769236176.179
2162331.0,1769236176.22
2162797.0,1769236176.26
2162841.0,1769236176.3
2163420.0,1769236176.341
2163847.0,1769236176.38
2164002.0,1769236176.421
2164480.0,1769236176.463
2162013.0,1769236176.501
2159495.0,1769236176.539
2157492.0,1769236176.581
2156412.0,1769236176.62
2155559.0,1769236176.661
2155130.0,1769236176.702
2155045.0,1769236176.741
2154214.0,1769236176.781
2153610.0,1769236176.822
2153176.0,1769236176.86
2153068.0,1769236176.9
2153204.0,1769236176.941
2153577.0,1769236176.98
2153889.0,1769236177.021
2154383.0,1769236177.062
2154446.0,1769236177.101
2155254.0,1769236177.141
2154015.0,1769236177.183
2150746.0,1769236177.22
2148148.0,1769236177.261
2145746.0,1769236177.301
2144344.0,1769236177.34
2143465.0,1769236177.381
2142771.0,1769236177.422
2142376.0,1769236177.462
2142335.0,1769236177.502
2141355.0,1769236177.543
2141285.0,1769236177.58
2141198.0,1769236177.62
2141328.0,1769236177.662
2141590.0,1769236177.701
2142103.0,1769236177.741
2142570.0,1769236177.782
2142769.0,1769236177.821
2143730.0,1769236177.862
2143875.0,1769236177.903
2142262.0,1769236177.942
2139947.0,1769236177.98
2137937.0,1769236178.021
2136878.0,1769236178.061
2135831.0,1769236178.101
2135561.0,1769236178.142
2135790.0,1769236178.181
2135635.0,1769236178.222
2135782.0,1769236178.264
2135491.0,1769236178.302
2135826.0,1769236178.34
2135877.0,1769236178.382
2136746.0,1769236178.421
2137418.0,1769236178.462
2137986.0,1769236178.502
2138788.0,1769236178.542
2139371.0,1769236178.582
2140662.0,1769236178.623
2140466.0,1769236178.661
2138057.0,1769236178.701
2135633.0,1769236178.742
2134291.0,1769236178.781
2133325.0,1769236178.821
2132694.0,1769236178.863
2132521.0,1769236178.902
2132474.0,1769236178.942
2132578.0,1769236178.984
2132276.0,1769236179.021
2132296.0,1769236179.062
2132392.0,1769236179.102
2133302.0,1769236179.141
2133987.0,1769236179.182
2134265.0,1769236179.223
2135356.0,1769236179.263
2135978.0,1769236179.302
2136884.0,1769236179.344
2137935.0,1769236179.381
2136464.0,1769236179.421
2134003.0,1769236179.463
2132609.0,1769236179.502
2131618.0,1769236179.542
2131488.0,1769236179.583
2131168.0,1769236179.623
2131531.0,1769236179.664
2131534.0,1769236179.702
2131807.0,1769236179.741
2131534.0,1769236179.782
2132002.0,1769236179.823
2132905.0,1769236179.863
2134219.0,1769236179.943
2135217.0,1769236179.983
2133690.0,1769236179.902
2136587.0,1769236180.023
2138457.0,1769236180.101
2137778.0,1769236180.142
2137434.0,1769236180.063
2135452.0,1769236180.183
2133669.0,1769236180.222
2133177.0,1769236180.263
2133095.0,1769236180.303
2132839.0,1769236180.342
2133297.0,1769236180.383
2133538.0,1769236180.424
2134108.0,1769236180.462
2134304.0,1769236180.502
2134859.0,1769236180.543
2135494.0,1769236180.582
2136506.0,1769236180.623
2137542.0,1769236180.665
2138161.0,1769236180.702
2139168.0,1769236180.743
2141771.0,1769236180.823
2140428.0,1769236180.864
2140235.0,1769236180.784
2137856.0,1769236180.942
2138704.0,1769236180.905
2137132.0,1769236180.982
2137206.0,1769236181.023
2137606.0,1769236181.063
2138166.0,1769236181.103
2138271.0,1769236181.144
2138681.0,1769236181.183
2138958.0,1769236181.223
2139263.0,1769236181.265
2139854.0,1769236181.302
2140775.0,1769236181.342
2141725.0,1769236181.383
2142752.0,1769236181.423
2143632.0,1769236181.464
2144627.0,1769236181.504
2143608.0,1769236181.543
2141581.0,1769236181.584
2140253.0,1769236181.623
2139215.0,1769236181.663
2138256.0,1769236181.703
2138638.0,1769236181.744
2139295.0,1769236181.783
2139095.0,1769236181.823
2138779.0,1769236181.865
2138950.0,1769236181.904
2139709.0,1769236181.944
2140246.0,1769236181.983
2140814.0,1769236182.022
2141583.0,1769236182.063
2142661.0,1769236182.104
2142999.0,1769236182.143
2141647.0,1769236182.184
2138785.0,1769236182.225
2136482.0,1769236182.265
2134788.0,1769236182.304
2133858.0,1769236182.351
2133236.0,1769236182.39
2132678.0,1769236182.43
2132595.0,1769236182.472
2132209.0,1769236182.51
2131799.0,1769236182.55
2131323.0,1769236182.591
2131506.0,1769236182.63
2131841.0,1769236182.671
2132488.0,1769236182.711
2132703.0,1769236182.75
2133303.0,1769236182.79
2133298.0,1769236182.828
2129967.0,1769236182.868
2126534.0,1769236182.907
2123575.0,1769236182.949
2120901.0,1769236182.988
2119355.0,1769236183.028
2117942.0,1769236183.07
2116922.0,1769236183.108
2116016.0,1769236183.148
2114969.0,1769236183.189
2114451.0,1769236183.228
2113610.0,1769236183.269
2113553.0,1769236183.31
2113384.0,1769236183.349
2113685.0,1769236183.389
2114080.0,1769236183.431
2113952.0,1769236183.471
2114386.0,1769236183.508
2111938.0,1769236183.549
2107753.0,1769236183.589
2103538.0,1769236183.629
2100048.0,1769236183.671
2097165.0,1769236183.709
2095206.0,1769236183.75
2093516.0,1769236183.791
2092191.0,1769236183.828
2090805.0,1769236183.869
2089760.0,1769236183.91
2088499.0,1769236183.949
2088056.0,1769236183.989
2087395.0,1769236184.031
2087286.0,1769236184.07
2087158.0,1769236184.11
2087169.0,1769236184.151
2087274.0,1769236184.188
2087611.0,1769236184.229
2085865.0,1769236184.271
2081182.0,1769236184.308
2076090.0,1769236184.348
2072372.0,1769236184.39
2069381.0,1769236184.429
2066787.0,1769236184.47
2064919.0,1769236184.511
2063746.0,1769236184.55
2061542.0,1769236184.59
2060016.0,1769236184.632
2058332.0,1769236184.669
2057545.0,1769236184.709
2056910.0,1769236184.75
2056691.0,1769236184.789
2056095.0,1769236184.83
2056127.0,1769236184.872
2056369.0,1769236184.909
2056385.0,1769236184.949
2054742.0,1769236184.991
2049888.0,1769236185.03
2045358.0,1769236185.071
2041801.0,1769236185.111
2039061.0,1769236185.151
2037009.0,1769236185.189
2036204.0,1769236185.23
2034313.0,1769236185.27
2032731.0,1769236185.31
2031356.0,1769236185.351
2030404.0,1769236185.39
2030032.0,1769236185.43
2030127.0,1769236185.472
2030014.0,1769236185.511
2030082.0,1769236185.551
2030601.0,1769236185.59
2030829.0,1769236185.63
2030434.0,1769236185.671
2026247.0,1769236185.711
2020542.0,1769236185.75
2016478.0,1769236185.791
2012823.0,1769236185.832
2009992.0,1769236185.872
2008050.0,1769236185.909
2006489.0,1769236185.951
2003935.0,1769236186.03
2005187.0,1769236185.99
2002684.0,1769236186.072
2002154.0,1769236186.151
2002261.0,1769236186.111
2002558.0,1769236186.192
2003597.0,1769236186.27
2002921.0,1769236186.231
2004326.0,1769236186.311
2005185.0,1769236186.35
2006354.0,1769236186.39
2005876.0,1769236186.432
2002443.0,1769236186.472
1997439.0,1769236186.511
1993956.0,1769236186.552
1991052.0,1769236186.592
1989152.0,1769236186.63
1988073.0,1769236186.672
1987964.0,1769236186.71
1987731.0,1769236186.75
1987317.0,1769236186.792
1987542.0,1769236186.831
1987783.0,1769236186.872
1989173.0,1769236186.913
1990509.0,1769236186.952
1991933.0,1769236186.99
1993306.0,1769236187.031
1994813.0,1769236187.071
1996190.0,1769236187.111
1998293.0,1769236187.152
1999731.0,1769236187.191
2002316.0,1769236187.231
2004001.0,1769236187.273
2002769.0,1769236187.312
1999280.0,1769236187.35
1996425.0,1769236187.391
1995131.0,1769236187.431
1994227.0,1769236187.472
1993754.0,1769236187.512
1994234.0,1769236187.551
1994667.0,1769236187.592
1994493.0,1769236187.633
1994974.0,1769236187.671
1995390.0,1769236187.711
1996263.0,1769236187.752
1997506.0,1769236187.791
1998850.0,1769236187.831
2000273.0,1769236187.873
2002239.0,1769236187.914
2004029.0,1769236187.95
2006282.0,1769236187.992
2008328.0,1769236188.03
2010183.0,1769236188.071
2010049.0,1769236188.112
2008072.0,1769236188.151
2006738.0,1769236188.191
2006632.0,1769236188.233
2007142.0,1769236188.273
2007802.0,1769236188.312
2009401.0,1769236188.353
2010577.0,1769236188.391
2011502.0,1769236188.431
2013464.0,1769236188.473
2015130.0,1769236188.511
2017319.0,1769236188.552
2019582.0,1769236188.593
2022099.0,1769236188.632
2024033.0,1769236188.673
2025850.0,1769236188.712
2027762.0,1769236188.751
2029899.0,1769236188.791
2030842.0,1769236188.833
2029271.0,1769236188.872
2027250.0,1769236188.912
2025634.0,1769236188.953
2025066.0,1769236188.993
2025558.0,1769236189.033
2025816.0,1769236189.073
2026662.0,1769236189.111
2027467.0,1769236189.152
2028418.0,1769236189.193
2028784.0,1769236189.232
2029669.0,1769236189.273
2031159.0,1769236189.314
2033166.0,1769236189.353
2034832.0,1769236189.393
2036208.0,1769236189.432
2038185.0,1769236189.472
2040230.0,1769236189.512
2041848.0,1769236189.553
2044470.0,1769236189.592
2044856.0,1769236189.633
2043453.0,1769236189.675
2041651.0,1769236189.713
2040602.0,1769236189.751
2040038.0,1769236189.793
2040481.0,1769236189.832
2041091.0,1769236189.873
2041803.0,1769236189.913
2042573.0,1769236189.953
2043376.0,1769236189.993
2044122.0,1769236190.034
2045525.0,1769236190.074
2047082.0,1769236190.112
2048920.0,1769236190.153
2050344.0,1769236190.192
2052381.0,1769236190.232
2053649.0,1769236190.274
2055380.0,1769236190.313
2056998.0,1769236190.353
2058975.0,1769236190.394
2060135.0,1769236190.434
2059276.0,1769236190.472
2057248.0,1769236190.513
2055756.0,1769236190.552
2055584.0,1769236190.592
2055662.0,1769236190.634
2055915.0,1769236190.673
2057405.0,1769236190.713
2058224.0,1769236190.754
2059218.0,1769236190.793
2059824.0,1769236190.834
2060810.0,1769236190.876
2062055.0,1769236190.912
2063661.0,1769236190.952
2065189.0,1769236190.994
2066533.0,1769236191.033
2067897.0,1769236191.074
2069395.0,1769236191.114
2071041.0,1769236191.154
2072838.0,1769236191.194
2073501.0,1769236191.235
2071389.0,1769236191.273
2069889.0,1769236191.313
2068545.0,1769236191.354
2068525.0,1769236191.393
2068551.0,1769236191.433
2069701.0,1769236191.475
2070375.0,1769236191.514
2070887.0,1769236191.554
2070792.0,1769236191.593
2071235.0,1769236191.633
2071864.0,1769236191.674
2072884.0,1769236191.714
2074377.0,1769236191.754
2075339.0,1769236191.794
2076595.0,1769236191.835
2077774.0,1769236191.875
2079426.0,1769236191.913
2079816.0,1769236191.954
2077676.0,1769236191.993
2075712.0,1769236192.033
2074999.0,1769236192.075
2074314.0,1769236192.114
2074551.0,1769236192.154
2075068.0,1769236192.195
2075740.0,1769236192.235
2075996.0,1769236192.273
2076413.0,1769236192.314
2076930.0,1769236192.353
2077575.0,1769236192.394
2078622.0,1769236192.435
2079825.0,1769236192.475
2080643.0,1769236192.514
2081609.0,1769236192.556
2082837.0,1769236192.595
2083670.0,1769236192.633
2081753.0,1769236192.675
2078472.0,1769236192.713
2075861.0,1769236192.753
2074308.0,1769236192.794
2072911.0,1769236192.833
2072152.0,1769236192.874
2072104.0,1769236192.915
2071692.0,1769236192.954
2071396.0,1769236192.994
2071208.0,1769236193.037
2071286.0,1769236193.073
2071700.0,1769236193.113
2072621.0,1769236193.154
2073127.0,1769236193.194
2074229.0,1769236193.233
2075007.0,1769236193.275
2076284.0,1769236193.314
2077468.0,1769236193.354
2076512.0,1769236193.395
2073573.0,1769236193.434
2069744.0,1769236193.475
2067459.0,1769236193.516
2065702.0,1769236193.555
2063533.0,1769236193.593
2062736.0,1769236193.635
2062607.0,1769236193.675
2061907.0,1769236193.714
2061160.0,1769236193.756
2060673.0,1769236193.795
2061003.0,1769236193.835
2060856.0,1769236193.877
2061157.0,1769236193.916
2061602.0,1769236193.954
2062354.0,1769236193.995
2062822.0,1769236194.034
2063365.0,1769236194.075
2064250.0,1769236194.116
2062192.0,1769236194.155
2058048.0,1769236194.195
2053705.0,1769236194.236
2050818.0,1769236194.276
2048463.0,1769236194.314
2046653.0,1769236194.357
2045834.0,1769236194.396
2045195.0,1769236194.436
2044157.0,1769236194.478
2042902.0,1769236194.516
2042025.0,1769236194.556
2041723.0,1769236194.597
2042360.0,1769236194.636
2043849.0,1769236194.677
2045440.0,1769236194.717
2047111.0,1769236194.756
2048518.0,1769236194.796
2049940.0,1769236194.837
2050152.0,1769236194.877
2049125.0,1769236194.916
2044872.0,1769236194.958
2040017.0,1769236194.997
2036529.0,1769236195.037
2034524.0,1769236195.079
2033080.0,1769236195.117
2032840.0,1769236195.155
2032970.0,1769236195.197
2032478.0,1769236195.236
2032019.0,1769236195.277
2032197.0,1769236195.317
2032693.0,1769236195.357
2033351.0,1769236195.397
2034555.0,1769236195.438
2035929.0,1769236195.478
2037073.0,1769236195.515
2038551.0,1769236195.557
2040304.0,1769236195.596
2040306.0,1769236195.636
2038082.0,1769236195.678
2035954.0,1769236195.716
2034998.0,1769236195.756
2034805.0,1769236195.798
2035075.0,1769236195.837
2036373.0,1769236195.878
2036887.0,1769236195.918
2037520.0,1769236195.957
2037654.0,1769236195.996
2038407.0,1769236196.037
2038991.0,1769236196.077
2040149.0,1769236196.116
2041196.0,1769236196.158
2042591.0,1769236196.197
2043639.0,1769236196.237
2045023.0,1769236196.279
2045975.0,1769236196.318
2045344.0,1769236196.356
2041842.0,1769236196.397
2038719.0,1769236196.436
2036692.0,1769236196.477
2035389.0,1769236196.518
2034167.0,1769236196.557
2033851.0,1769236196.598
2034254.0,1769236196.639
2034913.0,1769236196.677
2035171.0,1769236196.716
2036159.0,1769236196.758
2037110.0,1769236196.797
2038696.0,1769236196.837
2040313.0,1769236196.879
2042158.0,1769236196.918
2043956.0,1769236196.958
2045669.0,1769236196.999
2047378.0,1769236197.036
2049201.0,1769236197.077
2049443.0,1769236197.118
2047223.0,1769236197.157
2044864.0,1769236197.197
2044214.0,1769236197.239
2043589.0,1769236197.278
2043769.0,1769236197.318
2044408.0,1769236197.359
2045111.0,1769236197.396
2045926.0,1769236197.437
2046292.0,1769236197.479
2046994.0,1769236197.517
2047747.0,1769236197.558
2049338.0,1769236197.599
2050508.0,1769236197.638
2051625.0,1769236197.679
2053153.0,1769236197.718
2054739.0,1769236197.757
2056427.0,1769236197.797
2058052.0,1769236197.838
2060097.0,1769236197.878
2060458.0,1769236197.918
2058597.0,1769236197.959
2056880.0,1769236197.998
2056039.0,1769236198.039
2055670.0,1769236198.079
2056106.0,1769236198.117
2056930.0,1769236198.158
2057614.0,1769236198.199
2058244.0,1769236198.238
2058684.0,1769236198.278
2058831.0,1769236198.319
2059620.0,1769236198.358
2060118.0,1769236198.399
2060853.0,1769236198.44
2062118.0,1769236198.478
2062796.0,1769236198.517
2064061.0,1769236198.559
2065695.0,1769236198.598
2067063.0,1769236198.638
2069766.0,1769236198.719
2069065.0,1769236198.68
2067290.0,1769236198.798
2068797.0,1769236198.759
2067104.0,1769236198.878
2066704.0,1769236198.837
2067858.0,1769236198.919
2068661.0,1769236198.958
2069944.0,1769236198.999
2070863.0,1769236199.04
2071574.0,1769236199.08
2072878.0,1769236199.119
2073989.0,1769236199.158
2075426.0,1769236199.198
2076977.0,1769236199.238
2078872.0,1769236199.28
2080380.0,1769236199.318
2081893.0,1769236199.359
2083621.0,1769236199.4
2084592.0,1769236199.439
2083408.0,1769236199.48
2082608.0,1769236199.519
2082385.0,1769236199.558
2083268.0,1769236199.598
2083678.0,1769236199.64
2085107.0,1769236199.679
2085646.0,1769236199.719
2086866.0,1769236199.76
2087445.0,1769236199.8
2088137.0,1769236199.838
2089535.0,1769236199.88
2090993.0,1769236199.918
2092630.0,1769236199.959
2094543.0,1769236200.0
2096046.0,1769236200.039
2097443.0,1769236200.08
2099393.0,1769236200.121
2099646.0,1769236200.16
2098123.0,1769236200.198
2096649.0,1769236200.239
2096398.0,1769236200.279
2096127.0,1769236200.318
2096068.0,1769236200.36
2096769.0,1769236200.399
2097555.0,1769236200.439
2098037.0,1769236200.481
2099016.0,1769236200.52
2099584.0,1769236200.56
2100261.0,1769236200.601
2101837.0,1769236200.638
2102924.0,1769236200.679
2104586.0,1769236200.72
2105823.0,1769236200.759
2107239.0,1769236200.799
2108458.0,1769236200.84
2110246.0,1769236200.88
2111415.0,1769236200.92
2110588.0,1769236200.961
2108438.0,1769236201.0
2107245.0,1769236201.038
2106628.0,1769236201.08
2106424.0,1769236201.119
2106402.0,1769236201.159
2106672.0,1769236201.2
2107344.0,1769236201.24
2107619.0,1769236201.281
2108098.0,1769236201.321
2107903.0,1769236201.36
2108303.0,1769236201.399
2109408.0,1769236201.44
2110540.0,1769236201.48
2111865.0,1769236201.519
2113075.0,1769236201.561
2114562.0,1769236201.6
2115920.0,1769236201.64
2117010.0,1769236201.682
2118765.0,1769236201.719
2119715.0,1769236201.759
2118288.0,1769236201.8
2116402.0,1769236201.84
2115147.0,1769236201.881
2114756.0,1769236201.921
2114797.0,1769236201.96
2114700.0,1769236202.001
2115417.0,1769236202.042
2115684.0,1769236202.08
2116058.0,1769236202.119
2116668.0,1769236202.16
2117243.0,1769236202.2
2118104.0,1769236202.24
2119591.0,1769236202.282
2120717.0,1769236202.32
2121849.0,1769236202.361
2123384.0,1769236202.402
2124626.0,1769236202.439
2126203.0,1769236202.48
2127446.0,1769236202.521
2129309.0,1769236202.56
2130378.0,1769236202.6
2130475.0,1769236202.642
2129260.0,1769236202.681
2128289.0,1769236202.721
2128184.0,1769236202.762
2128400.0,1769236202.799
2128964.0,1769236202.84
2129712.0,1769236202.882
2130107.0,1769236202.92
2130910.0,1769236202.96
2131656.0,1769236203.002
2132869.0,1769236203.041
2133895.0,1769236203.082
2135424.0,1769236203.122
2136482.0,1769236203.16
2137572.0,1769236203.2
2139210.0,1769236203.241
2141180.0,1769236203.281
2142456.0,1769236203.32
2144054.0,1769236203.362
2144073.0,1769236203.401
2142702.0,1769236203.441
2141778.0,1769236203.483
2141532.0,1769236203.522
2141822.0,1769236203.56
2142325.0,1769236203.601
2143197.0,1769236203.641
2144016.0,1769236203.682
2145045.0,1769236203.722
2146078.0,1769236203.761
2147084.0,1769236203.802
2148657.0,1769236203.843
2150476.0,1769236203.881
2151768.0,1769236203.92
2153275.0,1769236203.961
2155332.0,1769236204.001
2157105.0,1769236204.041
2158716.0,1769236204.084
2159506.0,1769236204.119
2158255.0,1769236204.159
2157937.0,1769236204.2
2158227.0,1769236204.239
2158460.0,1769236204.28
2158681.0,1769236204.32
2159484.0,1769236204.359
2160220.0,1769236204.4
2160743.0,1769236204.441
2160973.0,1769236204.48
2162209.0,1769236204.52
2163611.0,1769236204.561
2166085.0,1769236204.6
2170078.0,1769236204.64
2173813.0,1769236204.682
2177026.0,1769236204.72
2180060.0,1769236204.76
2183297.0,1769236204.801
2184425.0,1769236204.84
2182700.0,1769236204.881
2180942.0,1769236204.921
2180219.0,1769236204.96
2180694.0,1769236205.0
2181331.0,1769236205.041
2183296.0,1769236205.081
2184642.0,1769236205.121
2185191.0,1769236205.162
2185925.0,1769236205.201
2187608.0,1769236205.241
2189694.0,1769236205.283
2191206.0,1769236205.321
2192960.0,1769236205.361
2194545.0,1769236205.402
2196287.0,1769236205.441
2197954.0,1769236205.482
2199330.0,1769236205.522
2198894.0,1769236205.561
2197068.0,1769236205.601
2195983.0,1769236205.642
2195875.0,1769236205.682
2195718.0,1769236205.721
2195895.0,1769236205.763
2196400.0,1769236205.802
2196816.0,1769236205.842
2196897.0,1769236205.883
2196753.0,1769236205.922
2197195.0,1769236205.962
2198195.0,1769236206.003
2199728.0,1769236206.042
2200036.0,1769236206.083
2200948.0,1769236206.123
2202184.0,1769236206.162
2204107.0,1769236206.202
2204973.0,1769236206.243
2203402.0,1769236206.283
2201956.0,1769236206.323
2201381.0,1769236206.359
2201433.0,1769236206.398
2202182.0,1769236206.438
2202564.0,1769236206.479
2203402.0,1769236206.518
2203933.0,1769236206.558
2204456.0,1769236206.599
2205362.0,1769236206.638
2205527.0,1769236206.679
2206376.0,1769236206.719
2207079.0,1769236206.758
2207419.0,1769236206.798
2208157.0,1769236206.839
2207318.0,1769236206.879
2205309.0,1769236206.918
2203338.0,1769236206.959
2202118.0,1769236206.999
2201354.0,1769236207.039
2201413.0,1769236207.08
2201696.0,1769236207.119
2201132.0,1769236207.159
2200857.0,1769236207.2
2200871.0,1769236207.239
2200567.0,1769236207.28
2200924.0,1769236207.32
2200992.0,1769236207.359
2201703.0,1769236207.399
2201542.0,1769236207.44
2201531.0,1769236207.48
2198668.0,1769236207.519
2195610.0,1769236207.56
2193539.0,1769236207.599
2191425.0,1769236207.639
2189750.0,1769236207.681
2188677.0,1769236207.719
2188104.0,1769236207.76
2187333.0,1769236207.801
2186300.0,1769236207.84
2185625.0,1769236207.88
2184932.0,1769236207.921
2184927.0,1769236207.96
2184444.0,1769236208.0
2184708.0,1769236208.041
2184467.0,1769236208.081
2184834.0,1769236208.12
2184092.0,1769236208.161
2180730.0,1769236208.2
2177100.0,1769236208.24
2173478.0,1769236208.282
2171227.0,1769236208.32
2169049.0,1769236208.36
2167109.0,1769236208.402
2166300.0,1769236208.441
2165267.0,1769236208.481
2163724.0,1769236208.522
2162639.0,1769236208.561
2162308.0,1769236208.601
2161604.0,1769236208.642
2161282.0,1769236208.682
2161144.0,1769236208.721
2161027.0,1769236208.762
2160904.0,1769236208.801
2161127.0,1769236208.841
2160898.0,1769236208.883
2157301.0,1769236208.921
2152868.0,1769236208.961
2148603.0,1769236209.002
2145686.0,1769236209.041
2143571.0,1769236209.082
2141445.0,1769236209.123
2140469.0,1769236209.162
2139966.0,1769236209.202
2138655.0,1769236209.243
2137740.0,1769236209.282
2137188.0,1769236209.322
2136950.0,1769236209.363
2137027.0,1769236209.402
2137043.0,1769236209.442
2137456.0,1769236209.484
2138422.0,1769236209.522
2138468.0,1769236209.562
2139332.0,1769236209.603
2139923.0,1769236209.642
2139862.0,1769236209.683
2136336.0,1769236209.723
2132398.0,1769236209.762
2129923.0,1769236209.802
2128265.0,1769236209.844
2126936.0,1769236209.883
2126411.0,1769236209.923
2125969.0,1769236209.964
2125608.0,1769236210.003
2124702.0,1769236210.043
2124273.0,1769236210.085
2124310.0,1769236210.123
2124833.0,1769236210.163
2125122.0,1769236210.204
2125372.0,1769236210.243
2125652.0,1769236210.284
2125156.0,1769236210.324
2125198.0,1769236210.363
2125999.0,1769236210.403
2124868.0,1769236210.444
2121501.0,1769236210.484
2118713.0,1769236210.524
2117034.0,1769236210.565
2115664.0,1769236210.604
2114380.0,1769236210.644
2114012.0,1769236210.685
2113675.0,1769236210.724
2113229.0,1769236210.764
2113186.0,1769236210.805
2113680.0,1769236210.844
2113860.0,1769236210.885
2114806.0,1769236210.925
2115003.0,1769236210.964
2115392.0,1769236211.004
2116077.0,1769236211.045
2117043.0,1769236211.085
2117908.0,1769236211.124
2117315.0,1769236211.166
2113670.0,1769236211.205
2110211.0,1769236211.245
2108266.0,1769236211.286
2107070.0,1769236211.325
2106035.0,1769236211.365
2105529.0,1769236211.406
2105694.0,1769236211.445
2105292.0,1769236211.486
2105416.0,1769236211.526
2105335.0,1769236211.565
2105901.0,1769236211.605
2106204.0,1769236211.643
2107165.0,1769236211.68
2108472.0,1769236211.72
2109536.0,1769236211.761
2110279.0,1769236211.8
2111566.0,1769236211.84
2113085.0,1769236211.882
2112495.0,1769236211.921
2109276.0,1769236211.961
2106577.0,1769236212.002
2104821.0,1769236212.039
2103839.0,1769236212.08
2103596.0,1769236212.121
2103580.0,1769236212.16
2103884.0,1769236212.2
2104143.0,1769236212.241
2104302.0,1769236212.281
2104190.0,1769236212.32
2104922.0,1769236212.362
2106019.0,1769236212.401
2107085.0,1769236212.441
2108066.0,1769236212.482
2109142.0,1769236212.521
2110523.0,1769236212.561
2111989.0,1769236212.602
2113397.0,1769236212.642
2114960.0,1769236212.68
2114498.0,1769236212.721
2111936.0,1769236212.76
2109026.0,1769236212.842
2109167.0,1769236212.921
2110236.0,1769236212.962
2109863.0,1769236212.801
2108908.0,1769236212.882
2111091.0,1769236213.002
2111872.0,1769236213.04
2112321.0,1769236213.082
2112956.0,1769236213.12
2116891.0,1769236213.24
2118868.0,1769236213.282
2120257.0,1769236213.322
2122011.0,1769236213.361
2115601.0,1769236213.201
2114204.0,1769236213.16
2124805.0,1769236213.442
2123387.0,1769236213.402
2121973.0,1769236213.519
2120997.0,1769236213.561
2120647.0,1769236213.6
2120703.0,1769236213.64
2123987.0,1769236213.482
2121620.0,1769236213.682
2122766.0,1769236213.72
2122586.0,1769236213.761
2123050.0,1769236213.802
2123303.0,1769236213.841
2123797.0,1769236213.882
2124751.0,1769236213.923
2125637.0,1769236213.962
2126879.0,1769236214.002
2127507.0,1769236214.043
2128855.0,1769236214.083
2129670.0,1769236214.122
2128360.0,1769236214.163
2125733.0,1769236214.2
2123129.0,1769236214.241
2122085.0,1769236214.282
2121345.0,1769236214.32
2121163.0,1769236214.361
2121993.0,1769236214.402
2121869.0,1769236214.441
2122269.0,1769236214.482
2121979.0,1769236214.523
2122353.0,1769236214.562
2123123.0,1769236214.602
2123728.0,1769236214.642
2124985.0,1769236214.682
2125607.0,1769236214.721
2126557.0,1769236214.762
2127767.0,1769236214.802
2128373.0,1769236214.842
2126653.0,1769236214.884
2123475.0,1769236214.923
2120716.0,1769236214.961
2118452.0,1769236215.002
2117328.0,1769236215.041
2116054.0,1769236215.082
2115959.0,1769236215.123
2115696.0,1769236215.162
2115336.0,1769236215.202
2114677.0,1769236215.244
2114869.0,1769236215.284
2115211.0,1769236215.321
2115745.0,1769236215.362
2116140.0,1769236215.402
2117024.0,1769236215.442
2117765.0,1769236215.483
2118768.0,1769236215.521
2119277.0,1769236215.562
2120298.0,1769236215.603
2118647.0,1769236215.642
2114962.0,1769236215.683
2111603.0,1769236215.724
2109056.0,1769236215.763
2105049.0,1769236215.963
2105803.0,1769236215.882
2107694.0,1769236215.801
2105283.0,1769236215.922
2106145.0,1769236215.843
2104092.0,1769236216.003
2103917.0,1769236216.043
2103831.0,1769236216.082
2104285.0,1769236216.12
2104826.0,1769236216.162
2105433.0,1769236216.202
2105862.0,1769236216.241
2106763.0,1769236216.282
2107464.0,1769236216.323
2108552.0,1769236216.362
2109874.0,1769236216.402
2110788.0,1769236216.444
2110487.0,1769236216.484
2106830.0,1769236216.523
2103644.0,1769236216.564
2101537.0,1769236216.602
2100163.0,1769236216.642
2100065.0,1769236216.684
2099794.0,1769236216.723
2099571.0,1769236216.763
2099784.0,1769236216.804
2099325.0,1769236216.843
2099718.0,1769236216.884
2100343.0,1769236216.923
2100851.0,1769236216.962
2102264.0,1769236217.002
2102980.0,1769236217.044
2104261.0,1769236217.084
2105275.0,1769236217.123
2106780.0,1769236217.164
2107925.0,1769236217.204
2109392.0,1769236217.244
2109359.0,1769236217.284
2106939.0,1769236217.322
2104735.0,1769236217.362
2103000.0,1769236217.404
2102938.0,1769236217.443
2103092.0,1769236217.484
2103850.0,1769236217.524
2104583.0,1769236217.564
2104481.0,1769236217.604
2104364.0,1769236217.643
2104775.0,1769236217.683
2105353.0,1769236217.723
2105787.0,1769236217.764
2107046.0,1769236217.803
2107456.0,1769236217.843
2108908.0,1769236217.885
2109376.0,1769236217.924
2110480.0,1769236217.964
2109308.0,1769236218.003
2105964.0,1769236218.043
2103561.0,1769236218.084
2102085.0,1769236218.124
2101602.0,1769236218.163
2101225.0,1769236218.204
2101572.0,1769236218.245
2101685.0,1769236218.285
2101419.0,1769236218.324
2101050.0,1769236218.371
2101299.0,1769236218.41
2101544.0,1769236218.45
2102329.0,1769236218.491
2103132.0,1769236218.53
2103774.0,1769236218.57
2104858.0,1769236218.611
2105730.0,1769236218.65
2105996.0,1769236218.691
2103721.0,1769236218.731
2099759.0,1769236218.77
2096837.0,1769236218.81
2095136.0,1769236218.851
2093490.0,1769236218.891
2092592.0,1769236218.931
2092291.0,1769236218.972
2091848.0,1769236219.011
2091574.0,1769236219.05
2091053.0,1769236219.089
2091061.0,1769236219.127
2091325.0,1769236219.167
2091516.0,1769236219.209
2091975.0,1769236219.248
2093296.0,1769236219.289
2094008.0,1769236219.329
2095139.0,1769236219.369
2096270.0,1769236219.448
2092789.0,1769236219.488
2095850.0,1769236219.409
2088738.0,1769236219.528
2085869.0,1769236219.569
2084249.0,1769236219.608
2082355.0,1769236219.649
2081953.0,1769236219.691
2081167.0,1769236219.729
2081458.0,1769236219.767
2080647.0,1769236219.809
2080180.0,1769236219.848
2080109.0,1769236219.889
2080770.0,1769236219.929
2081686.0,1769236219.968
2082085.0,1769236220.009
2083080.0,1769236220.05
2084140.0,1769236220.09
2085513.0,1769236220.127
2086620.0,1769236220.169
2087365.0,1769236220.208
2085130.0,1769236220.248
2078859.0,1769236220.329
2081365.0,1769236220.29
2077566.0,1769236220.369
2076560.0,1769236220.41
2076468.0,1769236220.449
2075588.0,1769236220.529
2074519.0,1769236220.608
2075982.0,1769236220.488
2074599.0,1769236220.65
2075343.0,1769236220.69
2075741.0,1769236220.729
2076665.0,1769236220.77
2074919.0,1769236220.568
2077269.0,1769236220.81
2078919.0,1769236220.89
2077781.0,1769236220.968
2074195.0,1769236221.01
2078144.0,1769236220.848
2079711.0,1769236220.928
2071182.0,1769236221.049
2069616.0,1769236221.09
2068867.0,1769236221.13
2068208.0,1769236221.17
2068387.0,1769236221.207
2067665.0,1769236221.249
2067073.0,1769236221.289
2066788.0,1769236221.328
2066665.0,1769236221.369
2067097.0,1769236221.409
2067474.0,1769236221.449
2068242.0,1769236221.491
2068982.0,1769236221.529
2070275.0,1769236221.57
2070840.0,1769236221.611
2070437.0,1769236221.648
2067642.0,1769236221.689
2063421.0,1769236221.73
2061042.0,1769236221.769
2058694.0,1769236221.809
2057432.0,1769236221.85
2056663.0,1769236221.89
2056522.0,1769236221.93
2055651.0,1769236221.971
2055404.0,1769236222.008
2055664.0,1769236222.129
2055990.0,1769236222.169
2056801.0,1769236222.211
2057706.0,1769236222.25
2058878.0,1769236222.291
2059703.0,1769236222.331
2054730.0,1769236222.049
2054838.0,1769236222.091
2062137.0,1769236222.409
2061133.0,1769236222.368
2060926.0,1769236222.45
2057530.0,1769236222.49
2054350.0,1769236222.53
2052271.0,1769236222.571
2050840.0,1769236222.61
2049867.0,1769236222.651
2049484.0,1769236222.69
2049313.0,1769236222.729
2049041.0,1769236222.769
2048788.0,1769236222.81
2048486.0,1769236222.85
2048961.0,1769236222.891
2049480.0,1769236222.931
2050418.0,1769236222.97
2052291.0,1769236223.05
2051433.0,1769236223.011
2053435.0,1769236223.09
2054909.0,1769236223.129
2057809.0,1769236223.21
2055933.0,1769236223.171
2056887.0,1769236223.292
2058942.0,1769236223.25
2052115.0,1769236223.371
2051273.0,1769236223.41
2050856.0,1769236223.449
2050824.0,1769236223.49
2051642.0,1769236223.531
2051984.0,1769236223.57
2052410.0,1769236223.61
2053114.0,1769236223.652
2053620.0,1769236223.692
2054903.0,1769236223.729
2054186.0,1769236223.331
2056312.0,1769236223.77
2057669.0,1769236223.809
2059126.0,1769236223.849
2060999.0,1769236223.891
2064257.0,1769236223.97
2065180.0,1769236224.05
2065746.0,1769236224.011
2062549.0,1769236223.929
2063626.0,1769236224.091
2062864.0,1769236224.132
2063189.0,1769236224.171
2065474.0,1769236224.25
2064067.0,1769236224.211
2067369.0,1769236224.33
2068850.0,1769236224.41
2070122.0,1769236224.451
2071550.0,1769236224.493
2073081.0,1769236224.531
2068317.0,1769236224.371
2066663.0,1769236224.29
2074586.0,1769236224.571
2076342.0,1769236224.611
2078314.0,1769236224.65
2079275.0,1769236224.691
2078057.0,1769236224.732
2076830.0,1769236224.771
2075490.0,1769236224.811
2075617.0,1769236224.852
2076142.0,1769236224.892
2076897.0,1769236224.93
2078218.0,1769236224.971
2079028.0,1769236225.01
2079933.0,1769236225.051
2080689.0,1769236225.093
2081565.0,1769236225.131
2082643.0,1769236225.171
2084103.0,1769236225.213
2085736.0,1769236225.252
2090374.0,1769236225.331
2093405.0,1769236225.37
2093387.0,1769236225.452
2092377.0,1769236225.492
2092616.0,1769236225.531
2092875.0,1769236225.573
2092691.0,1769236225.612
2092977.0,1769236225.65
2087338.0,1769236225.291
2093923.0,1769236225.411
2093069.0,1769236225.692
2092394.0,1769236225.731
2092053.0,1769236225.812
2093448.0,1769236225.892
2092816.0,1769236225.851
2094400.0,1769236225.933
2095353.0,1769236225.972
2096739.0,1769236226.01
2097585.0,1769236226.052
2098572.0,1769236226.092
2099462.0,1769236226.131
2098388.0,1769236226.172
2096459.0,1769236226.212
2095722.0,1769236226.252
2095862.0,1769236226.294
2092275.0,1769236225.771
2096797.0,1769236226.37
2096004.0,1769236226.33
2099371.0,1769236226.451
2098389.0,1769236226.411
2100718.0,1769236226.491
2101608.0,1769236226.532
2103030.0,1769236226.571
2104731.0,1769236226.611
2107611.0,1769236226.692
2109044.0,1769236226.773
2108326.0,1769236226.732
2106455.0,1769236226.653
2109853.0,1769236226.812
2110450.0,1769236226.853
2111659.0,1769236226.893
2111297.0,1769236226.931
2109803.0,1769236226.971
2109607.0,1769236227.013
2109830.0,1769236227.052
2111104.0,1769236227.133
2110226.0,1769236227.093
2113217.0,1769236227.213
2112345.0,1769236227.172
2114491.0,1769236227.252
2115868.0,1769236227.292
2117023.0,1769236227.332
2119059.0,1769236227.373
2120069.0,1769236227.412
2122664.0,1769236227.494
2121631.0,1769236227.452
2124238.0,1769236227.533
2127261.0,1769236227.612
2125605.0,1769236227.573
2128264.0,1769236227.693
2128527.0,1769236227.652
2127202.0,1769236227.733
2127240.0,1769236227.772
2127539.0,1769236227.813
2128623.0,1769236227.854
2129820.0,1769236227.894
2131319.0,1769236227.933
2132679.0,1769236227.972
2133650.0,1769236228.012
2134971.0,1769236228.052
2137905.0,1769236228.132
2136721.0,1769236228.094
2141749.0,1769236228.214
2140290.0,1769236228.173
2143808.0,1769236228.253
2146532.0,1769236228.294
2148549.0,1769236228.333
2149093.0,1769236228.372
2148456.0,1769236228.412
2149014.0,1769236228.493
2149436.0,1769236228.533
2150194.0,1769236228.574
2151441.0,1769236228.613
2153091.0,1769236228.694
2154049.0,1769236228.732
2155066.0,1769236228.772
2156385.0,1769236228.814
2152438.0,1769236228.652
2157046.0,1769236228.853
2148009.0,1769236228.453
2158125.0,1769236228.894
2159446.0,1769236228.935
2160072.0,1769236228.974
2161154.0,1769236229.014
2162456.0,1769236229.053
2161775.0,1769236229.132
2162953.0,1769236229.093
2159644.0,1769236229.174
2159586.0,1769236229.213
2159809.0,1769236229.253
2160330.0,1769236229.295
2161298.0,1769236229.334
2162993.0,1769236229.374
2164425.0,1769236229.413
2165526.0,1769236229.452
2166458.0,1769236229.493
2167759.0,1769236229.534
2168671.0,1769236229.573
2170142.0,1769236229.613
2172017.0,1769236229.695
2173239.0,1769236229.774
2170596.0,1769236229.655
2174826.0,1769236229.853
2174752.0,1769236229.895
2172407.0,1769236229.732
2172197.0,1769236229.934
2174268.0,1769236229.813
2170461.0,1769236229.974
2168634.0,1769236230.015
2167758.0,1769236230.054
2167138.0,1769236230.093
2166981.0,1769236230.134
2166725.0,1769236230.173
2166675.0,1769236230.213
2166086.0,1769236230.255
2166437.0,1769236230.334
2167852.0,1769236230.412
2170035.0,1769236230.49
2171494.0,1769236230.529
2169244.0,1769236230.451
2166235.0,1769236230.294
2167105.0,1769236230.373
2172665.0,1769236230.568
2173944.0,1769236230.607
2175796.0,1769236230.646
2177115.0,1769236230.685
2178096.0,1769236230.724
2176813.0,1769236230.763
2174520.0,1769236230.802
2173568.0,1769236230.841
2172687.0,1769236230.88
2172402.0,1769236230.919
2172538.0,1769236230.958
2172225.0,1769236230.997
2171586.0,1769236231.036
2170802.0,1769236231.075
2170313.0,1769236231.114
2170245.0,1769236231.153
2169702.0,1769236231.192
2169658.0,1769236231.231
2169643.0,1769236231.27
2170400.0,1769236231.309
2173178.0,1769236231.387
2171153.0,1769236231.348
2174671.0,1769236231.426
2175032.0,1769236231.465
2173585.0,1769236231.504
2170761.0,1769236231.543
2168720.0,1769236231.582
2168297.0,1769236231.621
2168312.0,1769236231.66
2169608.0,1769236231.699
2170466.0,1769236231.738
2170778.0,1769236231.777
2170379.0,1769236231.816
2170300.0,1769236231.855
2170537.0,1769236231.894
2171211.0,1769236231.933
2172210.0,1769236232.011
2172796.0,1769236232.05
2174630.0,1769236232.128
2175524.0,1769236232.167
2173742.0,1769236232.206
2170406.0,1769236232.245
2166904.0,1769236232.285
2164417.0,1769236232.325
2162690.0,1769236232.365
2161359.0,1769236232.405
2171809.0,1769236231.972
2173975.0,1769236232.089
2160781.0,1769236232.445
2160121.0,1769236232.485
2159657.0,1769236232.525
2158447.0,1769236232.565
2158289.0,1769236232.605
2157892.0,1769236232.645
2157670.0,1769236232.685
2158127.0,1769236232.725
2158225.0,1769236232.765
2158827.0,1769236232.805
2159002.0,1769236232.845
2159483.0,1769236232.885
2160374.0,1769236232.925
2158540.0,1769236232.965
2153852.0,1769236233.005
2144404.0,1769236233.085
2148484.0,1769236233.045
2138643.0,1769236233.165
2136753.0,1769236233.205
2135204.0,1769236233.245
2133944.0,1769236233.285
2132069.0,1769236233.325
2130469.0,1769236233.365
2129658.0,1769236233.405
2128960.0,1769236233.445
2128491.0,1769236233.485
2128374.0,1769236233.525
2128037.0,1769236233.565
2127876.0,1769236233.605
2128131.0,1769236233.645
2128370.0,1769236233.685
2128049.0,1769236233.725
2123587.0,1769236233.765
2117432.0,1769236233.805
2141484.0,1769236233.125
2112315.0,1769236233.845
2104612.0,1769236233.925
2108155.0,1769236233.885
2102201.0,1769236233.965
2100592.0,1769236234.005
2098495.0,1769236234.045
2096146.0,1769236234.085
2094069.0,1769236234.125
2092081.0,1769236234.165
2091023.0,1769236234.205
2090122.0,1769236234.245
2089170.0,1769236234.285
2088837.0,1769236234.325
2088684.0,1769236234.365
2088323.0,1769236234.405
2087863.0,1769236234.445
2084321.0,1769236234.485
2078061.0,1769236234.525
2072362.0,1769236234.565
2067705.0,1769236234.605
2064442.0,1769236234.645
2062176.0,1769236234.685
2060767.0,1769236234.725
2058519.0,1769236234.765
2056054.0,1769236234.805
2054027.0,1769236234.845
2052685.0,1769236234.885
2051878.0,1769236234.925
2051072.0,1769236234.965
2050678.0,1769236235.005
2050195.0,1769236235.045
2050603.0,1769236235.085
2049436.0,1769236235.125
2043496.0,1769236235.165
2036420.0,1769236235.205
2029269.0,1769236235.245
2023756.0,1769236235.285
2019677.0,1769236235.325
2016809.0,1769236235.365
2015397.0,1769236235.405
2013130.0,1769236235.445
2011502.0,1769236235.485
2010862.0,1769236235.525
2011088.0,1769236235.565
2012061.0,1769236235.605
2012789.0,1769236235.645
2014408.0,1769236235.685
2015743.0,1769236235.725
2017669.0,1769236235.765
2019039.0,1769236235.805
2015176.0,1769236235.845
2010125.0,1769236235.885
2005923.0,1769236235.925
2003152.0,1769236235.965
2001572.0,1769236236.005
2000342.0,1769236236.045
1999839.0,1769236236.085
1998060.0,1769236236.125
1995085.0,1769236236.165
1993148.0,1769236236.205
1992519.0,1769236236.245
1992877.0,1769236236.285
1993666.0,1769236236.325
1994209.0,1769236236.365
1995282.0,1769236236.405
1996745.0,1769236236.445
1998520.0,1769236236.485
1996637.0,1769236236.525
1991709.0,1769236236.565
1986116.0,1769236236.605
1982180.0,1769236236.645
1981823.0,1769236236.685
1983084.0,1769236236.725
1983535.0,1769236236.765
1983546.0,1769236236.805
1984441.0,1769236236.845
1985739.0,1769236236.885
1988129.0,1769236236.925
1990558.0,1769236237.005
1989995.0,1769236236.965
1990400.0,1769236237.045
1991466.0,1769236237.085
1992256.0,1769236237.125
1992153.0,1769236237.165
1989942.0,1769236237.205
1987994.0,1769236237.245
1987423.0,1769236237.285
1988083.0,1769236237.325
1988914.0,1769236237.365
1991130.0,1769236237.405
1992764.0,1769236237.445
1994585.0,1769236237.485
1996705.0,1769236237.525
1998756.0,1769236237.565
2001285.0,1769236237.605
2004183.0,1769236237.645
2007188.0,1769236237.685
2010373.0,1769236237.725
2013463.0,1769236237.765
2014960.0,1769236237.805
2014449.0,1769236237.845
2014077.0,1769236237.885
2014120.0,1769236237.925
2015114.0,1769236237.965
2016957.0,1769236238.005
2019104.0,1769236238.045
2020395.0,1769236238.085
2021524.0,1769236238.125
2023132.0,1769236238.165
2024444.0,1769236238.205
2026916.0,1769236238.245
2030107.0,1769236238.285
2033928.0,1769236238.325
2038708.0,1769236238.365
2041870.0,1769236238.405
2041842.0,1769236238.445
2041548.0,1769236238.485
2040267.0,1769236238.525
2039407.0,1769236238.565
2040932.0,1769236238.605
2043722.0,1769236238.645
2047601.0,1769236238.685
2051348.0,1769236238.725
2054004.0,1769236238.765
2056683.0,1769236238.805
2060543.0,1769236238.845
2064300.0,1769236238.885
2067283.0,1769236238.925
2075018.0,1769236239.005
2075603.0,1769236239.045
2071324.0,1769236238.965
2074765.0,1769236239.085
2075234.0,1769236239.125
2072474.0,1769236239.165
2072208.0,1769236239.205
2073061.0,1769236239.245
2077990.0,1769236239.285
2088457.0,1769236239.365
2093536.0,1769236239.405
2094286.0,1769236239.445
2083635.0,1769236239.325
2095004.0,1769236239.525
2094495.0,1769236239.485
2103219.0,1769236239.605
2098547.0,1769236239.565
2107135.0,1769236239.645
2110562.0,1769236239.685
2111918.0,1769236239.725
2113646.0,1769236239.765
2119113.0,1769236239.845
2116658.0,1769236239.805
2122107.0,1769236239.885
2125331.0,1769236239.925
2127832.0,1769236239.965
2132158.0,1769236240.005
2138546.0,1769236240.085
2135780.0,1769236240.045
2141823.0,1769236240.125
2144209.0,1769236240.165
2147248.0,1769236240.205
2149505.0,1769236240.245
2150815.0,1769236240.285
2147510.0,1769236240.325
2148165.0,1769236240.365
2149403.0,1769236240.405
2149393.0,1769236240.445
2150442.0,1769236240.485
2151209.0,1769236240.525
2152914.0,1769236240.565
2155705.0,1769236240.605
2156398.0,1769236240.645
2158623.0,1769236240.685
2160771.0,1769236240.725
2163333.0,1769236240.765
2167303.0,1769236240.805
2165374.0,1769236240.845
2161810.0,1769236240.885
2155952.0,1769236240.925
2154758.0,1769236240.965
2156168.0,1769236241.005
2155208.0,1769236241.045
2154667.0,1769236241.085
2158162.0,1769236241.125
2154928.0,1769236241.165
2158179.0,1769236241.205
2161692.0,1769236241.245
2164133.0,1769236241.285
2166289.0,1769236241.325
2170446.0,1769236241.365
2175711.0,1769236241.405
2179712.0,1769236241.445
2181507.0,1769236241.485
2181590.0,1769236241.525
2182073.0,1769236241.565
2183247.0,1769236241.605
2184604.0,1769236241.645
2186168.0,1769236241.685
2187721.0,1769236241.725
2189489.0,1769236241.765
2190657.0,1769236241.805
2192453.0,1769236241.845
2191770.0,1769236241.885
2193689.0,1769236241.925
2200329.0,1769236241.965
2203554.0,1769236242.005
2203302.0,1769236242.045
2201487.0,1769236242.085
2199955.0,1769236242.125
2197028.0,1769236242.165
2193830.0,1769236242.205
2193363.0,1769236242.245
2194945.0,1769236242.285
2196655.0,1769236242.37
2199091.0,1769236242.409
2199479.0,1769236242.45
2200400.0,1769236242.491
2201276.0,1769236242.53
2201690.0,1769236242.57
2202581.0,1769236242.611
2203178.0,1769236242.65
2202302.0,1769236242.691
2198578.0,1769236242.731
2194313.0,1769236242.77
2190582.0,1769236242.81
2188952.0,1769236242.851
2192406.0,1769236242.891
2198831.0,1769236242.931
2203845.0,1769236242.972
2208029.0,1769236243.011
2211385.0,1769236243.051
2212041.0,1769236243.093
2212672.0,1769236243.131
2212463.0,1769236243.171
2211793.0,1769236243.212
2210828.0,1769236243.251
2209358.0,1769236243.292
2206607.0,1769236243.332
2204109.0,1769236243.371
2203396.0,1769236243.412
2203048.0,1769236243.453
2203251.0,1769236243.492
2203579.0,1769236243.532
2204610.0,1769236243.573
2205528.0,1769236243.612
2207065.0,1769236243.652
2208010.0,1769236243.694
2208847.0,1769236243.732
2211046.0,1769236243.813
2209890.0,1769236243.772
2211683.0,1769236243.852
2211978.0,1769236243.893
2211083.0,1769236243.934
2208320.0,1769236243.973
2206123.0,1769236244.013
2204746.0,1769236244.054
2203609.0,1769236244.094
2202981.0,1769236244.133
2203537.0,1769236244.174
2203724.0,1769236244.213
2204059.0,1769236244.253
2204144.0,1769236244.295
2204574.0,1769236244.333
2205127.0,1769236244.374
2205588.0,1769236244.415
2206596.0,1769236244.454
2207301.0,1769236244.475
2208535.0,1769236244.516
2208954.0,1769236244.555
2206819.0,1769236244.596
2205164.0,1769236244.637
2203820.0,1769236244.677
2203646.0,1769236244.717
2203684.0,1769236244.758
2204523.0,1769236244.797
2205478.0,1769236244.838
2205753.0,1769236244.88
2206208.0,1769236244.918
2206820.0,1769236244.956
2207275.0,1769236244.998
2208527.0,1769236245.037
2209818.0,1769236245.078
2210793.0,1769236245.118
2212009.0,1769236245.157
2213444.0,1769236245.198
2212530.0,1769236245.239
2211415.0,1769236245.279
2210802.0,1769236245.317
2210769.0,1769236245.358
2211098.0,1769236245.397
2212033.0,1769236245.437
2213440.0,1769236245.479
2214588.0,1769236245.518
2215290.0,1769236245.558
2215840.0,1769236245.6
2216900.0,1769236245.637
2218218.0,1769236245.678
2219717.0,1769236245.718
2220590.0,1769236245.757
2222012.0,1769236245.798
2223438.0,1769236245.839
2224724.0,1769236245.879
2224436.0,1769236245.919
2223527.0,1769236245.96
2223536.0,1769236245.997
2224326.0,1769236246.037
2225377.0,1769236246.079
2227947.0,1769236246.158
2229228.0,1769236246.199
2226653.0,1769236246.118
2229836.0,1769236246.238
2230820.0,1769236246.279
2232072.0,1769236246.32
2233366.0,1769236246.357
2234667.0,1769236246.397
2236366.0,1769236246.439
2237697.0,1769236246.478
2239005.0,1769236246.518
2240193.0,1769236246.559
2239474.0,1769236246.599
2238530.0,1769236246.639
2239178.0,1769236246.679
2239500.0,1769236246.717
2240520.0,1769236246.758
2242162.0,1769236246.798
2243199.0,1769236246.838
2244196.0,1769236246.879
2244766.0,1769236246.919
2245871.0,1769236246.959
2247342.0,1769236246.999
2250787.0,1769236247.078
2248673.0,1769236247.04
2252910.0,1769236247.118
2255069.0,1769236247.159
2256587.0,1769236247.198
2257214.0,1769236247.239
2256496.0,1769236247.28
2256325.0,1769236247.319
2257351.0,1769236247.359
2259110.0,1769236247.401
2260623.0,1769236247.438
2262972.0,1769236247.479
2265166.0,1769236247.519
2266764.0,1769236247.558
2268414.0,1769236247.599
2272274.0,1769236247.68
2270097.0,1769236247.64
2274126.0,1769236247.72
2277777.0,1769236247.798
2275958.0,1769236247.759
2278833.0,1769236247.838
2278763.0,1769236247.88
2278714.0,1769236247.919
2279427.0,1769236247.959
2282251.0,1769236248.04
2280577.0,1769236248.0
2284031.0,1769236248.081
2285491.0,1769236248.119
2286138.0,1769236248.158
2287221.0,1769236248.199
2288440.0,1769236248.24
2288772.0,1769236248.28
2290250.0,1769236248.361
2291328.0,1769236248.4
2291477.0,1769236248.44
2289390.0,1769236248.319
2290078.0,1769236248.48
2288425.0,1769236248.518
2287104.0,1769236248.639
2287985.0,1769236248.68
2288206.0,1769236248.721
2288936.0,1769236248.76
2289119.0,1769236248.799
2287703.0,1769236248.559
2287449.0,1769236248.6
2289887.0,1769236248.84
2290490.0,1769236248.88
2291699.0,1769236248.919
2292713.0,1769236248.96
2293992.0,1769236249.0
2293845.0,1769236249.04
2292190.0,1769236249.082
2290797.0,1769236249.12
2290380.0,1769236249.159
2289875.0,1769236249.2
2290000.0,1769236249.239
2290796.0,1769236249.28
2291319.0,1769236249.321
2291654.0,1769236249.359
2291568.0,1769236249.398
2291734.0,1769236249.439
2292241.0,1769236249.479
2292570.0,1769236249.519
2292902.0,1769236249.56
2293271.0,1769236249.599
2291583.0,1769236249.64
2287936.0,1769236249.681
2283912.0,1769236249.72
2280238.0,1769236249.76
2274497.0,1769236249.88
2272998.0,1769236249.92
2277503.0,1769236249.802
2275862.0,1769236249.841
2270028.0,1769236250.0
2271762.0,1769236249.959
2267024.0,1769236250.121
2268733.0,1769236250.041
2267400.0,1769236250.081
2265811.0,1769236250.162
2265370.0,1769236250.201
2264083.0,1769236250.239
2258508.0,1769236250.281
2252016.0,1769236250.32
2246318.0,1769236250.36
2241853.0,1769236250.401
2238229.0,1769236250.44
2232975.0,1769236250.522
2235063.0,1769236250.481
2229758.0,1769236250.561
2223603.0,1769236250.641
2218943.0,1769236250.72
2226660.0,1769236250.6
2221116.0,1769236250.681
2215315.0,1769236250.801
2216878.0,1769236250.761
2213658.0,1769236250.841
2208496.0,1769236250.883
2190704.0,1769236250.96
2177348.0,1769236251.04
2168919.0,1769236251.122
2173062.0,1769236251.081
2164598.0,1769236251.161
2160646.0,1769236251.201
2155858.0,1769236251.243
2152520.0,1769236251.28
2148933.0,1769236251.32
2146513.0,1769236251.361
2143927.0,1769236251.4
2183199.0,1769236251.001
2199259.0,1769236250.919
2141568.0,1769236251.441
2137380.0,1769236251.483
2128050.0,1769236251.521
2118512.0,1769236251.562
2109652.0,1769236251.603
2102978.0,1769236251.64
2097872.0,1769236251.681
2093491.0,1769236251.721
2089264.0,1769236251.761
2084780.0,1769236251.801
2080595.0,1769236251.842
2073551.0,1769236251.921
2076463.0,1769236251.882
2070647.0,1769236251.96
2068314.0,1769236251.999
2066514.0,1769236252.04
2064314.0,1769236252.082
2048101.0,1769236252.161
2058465.0,1769236252.12
2038892.0,1769236252.202
2031107.0,1769236252.241
2020191.0,1769236252.322
2012727.0,1769236252.402
2008237.0,1769236252.443
2004467.0,1769236252.481
2001531.0,1769236252.521
1998826.0,1769236252.562
2024739.0,1769236252.282
2016130.0,1769236252.362
1996878.0,1769236252.601
1993925.0,1769236252.683
1992899.0,1769236252.722
1995292.0,1769236252.642
1990770.0,1769236252.762
1974279.0,1769236252.841
1983316.0,1769236252.802
1961850.0,1769236252.922
1967052.0,1769236252.882
1957590.0,1769236252.961
1954804.0,1769236253.002
1949893.0,1769236253.083
1947553.0,1769236253.123
1945766.0,1769236253.162
1945191.0,1769236253.241
1952579.0,1769236253.043
1945594.0,1769236253.283
1946305.0,1769236253.322
1947514.0,1769236253.362
1948660.0,1769236253.403
1949971.0,1769236253.442
1948312.0,1769236253.484
1942842.0,1769236253.522
1937024.0,1769236253.561
1932649.0,1769236253.602
1945112.0,1769236253.201
1929215.0,1769236253.643
1926708.0,1769236253.683
1925965.0,1769236253.722
1925076.0,1769236253.764
1924996.0,1769236253.803
1925605.0,1769236253.841
1927193.0,1769236253.883
1929920.0,1769236253.921
1932452.0,1769236253.962
1935740.0,1769236254.003
1939011.0,1769236254.042
1942018.0,1769236254.083
1945523.0,1769236254.124
1950818.0,1769236254.201
1948896.0,1769236254.163
1945654.0,1769236254.282
1948410.0,1769236254.243
1944229.0,1769236254.322
1944204.0,1769236254.368
1944997.0,1769236254.407
1947044.0,1769236254.448
1949287.0,1769236254.489
1951480.0,1769236254.528
1953126.0,1769236254.568
1954046.0,1769236254.609
1955823.0,1769236254.648
1958883.0,1769236254.729
1960017.0,1769236254.768
1957873.0,1769236254.689
1961006.0,1769236254.808
1967368.0,1769236254.969
1965119.0,1769236255.008
1962518.0,1769236255.05
1961658.0,1769236255.089
1963739.0,1769236254.889
1962058.0,1769236254.849
1965754.0,1769236254.928
1961582.0,1769236255.128
1962200.0,1769236255.168
1963738.0,1769236255.21
1965189.0,1769236255.249
1971952.0,1769236255.41
1969733.0,1769236255.369
1966922.0,1769236255.29
1968201.0,1769236255.33
1974602.0,1769236255.449
1977178.0,1769236255.489
1979777.0,1769236255.528
1981705.0,1769236255.57
1983009.0,1769236255.609
1985182.0,1769236255.649
1987976.0,1769236255.691
1990310.0,1769236255.73
1990389.0,1769236255.768
1987304.0,1769236255.848
1988047.0,1769236255.809
1987922.0,1769236255.89
1988646.0,1769236255.93
1991022.0,1769236255.969
1994006.0,1769236256.01
1996943.0,1769236256.051
2000154.0,1769236256.091
2002868.0,1769236256.128
2005245.0,1769236256.169
2009695.0,1769236256.249
2013336.0,1769236256.291
2017115.0,1769236256.329
2020711.0,1769236256.37
2027191.0,1769236256.53
2006917.0,1769236256.209
2024694.0,1769236256.411
2028000.0,1769236256.489
2028088.0,1769236256.45
2026573.0,1769236256.569
2026577.0,1769236256.609
2028500.0,1769236256.691
2030196.0,1769236256.73
2027338.0,1769236256.651
2031651.0,1769236256.771
2034172.0,1769236256.849
2036132.0,1769236256.891
2038372.0,1769236256.929
2032557.0,1769236256.809
2041034.0,1769236256.97
2043437.0,1769236257.011
2045501.0,1769236257.049
2048144.0,1769236257.087
2053696.0,1769236257.168
2052173.0,1769236257.25
2053421.0,1769236257.209
2051029.0,1769236257.129
2051459.0,1769236257.29
2051587.0,1769236257.329
2053867.0,1769236257.45
2052776.0,1769236257.41
2052008.0,1769236257.371
2054588.0,1769236257.492
2055365.0,1769236257.531
2056358.0,1769236257.571
2056824.0,1769236257.61
2057984.0,1769236257.649
2058830.0,1769236257.69
2060194.0,1769236257.731
2061600.0,1769236257.77
2063963.0,1769236257.811
2066553.0,1769236257.852
2069244.0,1769236257.892
2070485.0,1769236257.929
2069818.0,1769236257.97
2068849.0,1769236258.01
2069121.0,1769236258.05
2070423.0,1769236258.092
2073194.0,1769236258.171
2071811.0,1769236258.13
2075359.0,1769236258.212
2076438.0,1769236258.251
2077213.0,1769236258.29
2078491.0,1769236258.331
2079818.0,1769236258.37
2081317.0,1769236258.41
2082916.0,1769236258.451
2084436.0,1769236258.491
2086574.0,1769236258.531
2089112.0,1769236258.572
2091461.0,1769236258.611
2094104.0,1769236258.65
2095743.0,1769236258.692
2094496.0,1769236258.73
2093007.0,1769236258.77
2092062.0,1769236258.812
2091896.0,1769236258.851
2092029.0,1769236258.892
2092641.0,1769236258.932
2093142.0,1769236258.972
2092785.0,1769236259.01
2093148.0,1769236259.051
2092847.0,1769236259.091
2093367.0,1769236259.131
2094186.0,1769236259.172
2095579.0,1769236259.211
2097030.0,1769236259.251
2098436.0,1769236259.293
2100194.0,1769236259.332
2102229.0,1769236259.37
2103694.0,1769236259.411
2103542.0,1769236259.45
2100818.0,1769236259.492
2098088.0,1769236259.532
2096487.0,1769236259.571
2095480.0,1769236259.613
2094951.0,1769236259.65
2095717.0,1769236259.73
2095151.0,1769236259.689
2095317.0,1769236259.771
2095640.0,1769236259.81
2095616.0,1769236259.85
2096675.0,1769236259.892
2097187.0,1769236259.931
2098016.0,1769236259.971
2100696.0,1769236260.052
2099193.0,1769236260.013
2101944.0,1769236260.093
2102860.0,1769236260.133
2102096.0,1769236260.17
2098772.0,1769236260.211
2095579.0,1769236260.251
2093789.0,1769236260.291
2092519.0,1769236260.331
2092016.0,1769236260.372
2092317.0,1769236260.412
2092520.0,1769236260.452
2092398.0,1769236260.494
2091825.0,1769236260.532
2092388.0,1769236260.571
2092698.0,1769236260.612
2093669.0,1769236260.651
2095422.0,1769236260.733
2094687.0,1769236260.692
2097165.0,1769236260.772
2098155.0,1769236260.812
2096757.0,1769236260.854
2094082.0,1769236260.891
2091529.0,1769236260.931
2090164.0,1769236260.972
2088764.0,1769236261.012
2088917.0,1769236261.052
2089088.0,1769236261.094
2088946.0,1769236261.132
2089050.0,1769236261.173
2089566.0,1769236261.214
2090458.0,1769236261.251
2091372.0,1769236261.292
2092366.0,1769236261.332
2093393.0,1769236261.372
2094897.0,1769236261.412
2095725.0,1769236261.453
2096083.0,1769236261.493
2093423.0,1769236261.533
2089366.0,1769236261.574
2086431.0,1769236261.611
2084166.0,1769236261.652
2082949.0,1769236261.694
2082805.0,1769236261.732
2083377.0,1769236261.772
2084397.0,1769236261.814
2085386.0,1769236261.853
2086261.0,1769236261.894
2087131.0,1769236261.932
2088377.0,1769236261.972
2089585.0,1769236262.012
2091530.0,1769236262.053
2093236.0,1769236262.093
2095302.0,1769236262.133
2094908.0,1769236262.173
2092201.0,1769236262.21
2089827.0,1769236262.25
2088016.0,1769236262.292
2086962.0,1769236262.331
2086853.0,1769236262.371
2087147.0,1769236262.413
2087160.0,1769236262.452
2087157.0,1769236262.493
2087589.0,1769236262.533
2087551.0,1769236262.572
2088562.0,1769236262.613
2089149.0,1769236262.654
2089499.0,1769236262.694
2090174.0,1769236262.734
2090619.0,1769236262.773
2091486.0,1769236262.812
2090305.0,1769236262.852
2085794.0,1769236262.894
2082048.0,1769236262.933
2079163.0,1769236262.973
2076398.0,1769236263.015
2074619.0,1769236263.054
2074316.0,1769236263.095
2073320.0,1769236263.133
2072920.0,1769236263.172
2072106.0,1769236263.213
2071850.0,1769236263.254
2071972.0,1769236263.294
2072573.0,1769236263.333
2073069.0,1769236263.375
2073867.0,1769236263.414
2074567.0,1769236263.454
2075681.0,1769236263.494
2076843.0,1769236263.532
2074981.0,1769236263.573
2071557.0,1769236263.614
2069115.0,1769236263.653
2067390.0,1769236263.694
2066944.0,1769236263.735
2066650.0,1769236263.774
2065675.0,1769236263.813
2064865.0,1769236263.854
2064804.0,1769236263.894
2064977.0,1769236263.933
2065826.0,1769236263.974
2067530.0,1769236264.014
2068974.0,1769236264.054
2070686.0,1769236264.096
2072322.0,1769236264.134
2074118.0,1769236264.173
2074974.0,1769236264.214
2074128.0,1769236264.253
2071340.0,1769236264.294
2068864.0,1769236264.335
2066899.0,1769236264.374
2066221.0,1769236264.414
2066260.0,1769236264.455
2067234.0,1769236264.495
2067928.0,1769236264.533
2068179.0,1769236264.574
2069203.0,1769236264.613
2070395.0,1769236264.654
2071824.0,1769236264.696
2072995.0,1769236264.734
2074982.0,1769236264.772
2076520.0,1769236264.814
2078411.0,1769236264.853
2080171.0,1769236264.894
2082042.0,1769236264.934
2081721.0,1769236264.974
2079703.0,1769236265.014
2078401.0,1769236265.055
2077580.0,1769236265.095
2077479.0,1769236265.135
2077392.0,1769236265.176
2078738.0,1769236265.213
2079274.0,1769236265.254
2080008.0,1769236265.295
2080183.0,1769236265.334
2081187.0,1769236265.374
2081637.0,1769236265.416
2082706.0,1769236265.455
2084001.0,1769236265.496
2085275.0,1769236265.536
2086935.0,1769236265.573
2088785.0,1769236265.614
2090994.0,1769236265.655
2091443.0,1769236265.695
2089619.0,1769236265.735
2088454.0,1769236265.776
2088155.0,1769236265.815
2087914.0,1769236265.855
2087529.0,1769236265.895
2088766.0,1769236265.934
2089511.0,1769236265.974
2090006.0,1769236266.015
2090376.0,1769236266.055
2090952.0,1769236266.096
2092137.0,1769236266.136
2094307.0,1769236266.175
2096769.0,1769236266.216
2099010.0,1769236266.255
2103665.0,1769236266.334
2101597.0,1769236266.295
2106347.0,1769236266.365
2108752.0,1769236266.404
2111185.0,1769236266.444
2111182.0,1769236266.485
2109951.0,1769236266.524
2109122.0,1769236266.564
2110523.0,1769236266.644
2111620.0,1769236266.685
2109732.0,1769236266.605
2113422.0,1769236266.725
2114960.0,1769236266.764
2116229.0,1769236266.804
2117179.0,1769236266.846
2118486.0,1769236266.886
2120008.0,1769236266.926
2121132.0,1769236266.967
2122986.0,1769236267.006
2124932.0,1769236267.047
2126255.0,1769236267.089
2127422.0,1769236267.127
2128502.0,1769236267.167
2129257.0,1769236267.209
2129039.0,1769236267.248
2125904.0,1769236267.288
2123513.0,1769236267.329
2122926.0,1769236267.366
2122759.0,1769236267.407
2122889.0,1769236267.448
2124752.0,1769236267.488
2125426.0,1769236267.527
2126040.0,1769236267.569
2127427.0,1769236267.608
2128485.0,1769236267.648
2129816.0,1769236267.688
2131420.0,1769236267.727
2132443.0,1769236267.767
2134492.0,1769236267.808
2135916.0,1769236267.848
2137599.0,1769236267.889
2138869.0,1769236267.929
2138001.0,1769236267.968
2136414.0,1769236268.009
2134927.0,1769236268.048
2134359.0,1769236268.088
2134045.0,1769236268.127
2134138.0,1769236268.168
2134183.0,1769236268.328
2134496.0,1769236268.369
2135297.0,1769236268.408
2135775.0,1769236268.447
2134199.0,1769236268.29
2134571.0,1769236268.208
2134507.0,1769236268.248
2136569.0,1769236268.488
2138268.0,1769236268.568
2137430.0,1769236268.529
2138754.0,1769236268.608
2136623.0,1769236268.65
2134430.0,1769236268.69
2132994.0,1769236268.727
2133028.0,1769236268.768
2133045.0,1769236268.808
2133735.0,1769236268.848
2134264.0,1769236268.89
2134863.0,1769236268.928
2135272.0,1769236268.969
2135807.0,1769236269.01
2136810.0,1769236269.049
2138003.0,1769236269.088
2138442.0,1769236269.129
2139271.0,1769236269.208
2138598.0,1769236269.168
2139629.0,1769236269.249
2137449.0,1769236269.289
2133643.0,1769236269.329
2130412.0,1769236269.37
2128454.0,1769236269.409
2126965.0,1769236269.448
2126337.0,1769236269.489
2126270.0,1769236269.528
2125648.0,1769236269.568
2125188.0,1769236269.61
2124564.0,1769236269.649
2124087.0,1769236269.69
2124376.0,1769236269.73
2124546.0,1769236269.767
2125084.0,1769236269.808
2125283.0,1769236269.848
2126072.0,1769236269.889
2127008.0,1769236269.928
2124865.0,1769236269.97
2121363.0,1769236270.009
2118293.0,1769236270.049
2116096.0,1769236270.091
2114145.0,1769236270.13
2113535.0,1769236270.168
2113716.0,1769236270.209
2113050.0,1769236270.248
2112512.0,1769236270.289
2111999.0,1769236270.33
2111503.0,1769236270.369
2111697.0,1769236270.41
2111622.0,1769236270.451
2112122.0,1769236270.491
2112795.0,1769236270.528
2112995.0,1769236270.569
2113914.0,1769236270.609
2113679.0,1769236270.649
2111012.0,1769236270.691
2106633.0,1769236270.729
2102660.0,1769236270.77
2099668.0,1769236270.811
2097533.0,1769236270.848
2096204.0,1769236270.889
2095019.0,1769236270.93
2094451.0,1769236270.969
2093948.0,1769236271.009
2093900.0,1769236271.051
2094093.0,1769236271.09
2094201.0,1769236271.13
2095067.0,1769236271.171
2096370.0,1769236271.208
2097537.0,1769236271.249
2098890.0,1769236271.291
2100300.0,1769236271.329
2100621.0,1769236271.369
2097755.0,1769236271.411
2093980.0,1769236271.45
2089981.0,1769236271.491
2086862.0,1769236271.531
2084009.0,1769236271.568
2082566.0,1769236271.609
2080839.0,1769236271.65
2079138.0,1769236271.69
2077185.0,1769236271.73
2074744.0,1769236271.771
2073391.0,1769236271.81
2072619.0,1769236271.851
2072610.0,1769236271.891
2072656.0,1769236271.929
2073615.0,1769236271.969
2073974.0,1769236272.011
2072661.0,1769236272.05
2069184.0,1769236272.091
2066657.0,1769236272.131
2065629.0,1769236272.171
2065222.0,1769236272.211
2065481.0,1769236272.25
2066516.0,1769236272.29
2067163.0,1769236272.33
2067709.0,1769236272.371
2068210.0,1769236272.412
2069120.0,1769236272.449
2070238.0,1769236272.491
2071420.0,1769236272.529
2072468.0,1769236272.569
2074046.0,1769236272.611
2075487.0,1769236272.65
2075385.0,1769236272.691
2072553.0,1769236272.732
2069147.0,1769236272.771
2066975.0,1769236272.811
2065315.0,1769236272.85
2064807.0,1769236272.89
2064585.0,1769236272.93
2064741.0,1769236272.971
2065038.0,1769236273.01
2064852.0,1769236273.051
2065174.0,1769236273.093
2065874.0,1769236273.131
2066900.0,1769236273.171
2068157.0,1769236273.211
2069256.0,1769236273.25
2070517.0,1769236273.291
2072266.0,1769236273.331
2073155.0,1769236273.37
2070886.0,1769236273.411
2067660.0,1769236273.452
2065361.0,1769236273.492
2064017.0,1769236273.532
2062718.0,1769236273.571
2062729.0,1769236273.61
2063101.0,1769236273.65
2063026.0,1769236273.692
2063168.0,1769236273.731
2063449.0,1769236273.771
2064794.0,1769236273.852
2063843.0,1769236273.813
2065991.0,1769236273.891
2066934.0,1769236273.931
2068234.0,1769236273.97
2069147.0,1769236274.011
2070505.0,1769236274.052
2072035.0,1769236274.092
2071457.0,1769236274.132
2068737.0,1769236274.173
2066603.0,1769236274.212
2065184.0,1769236274.292
2065709.0,1769236274.25
2065327.0,1769236274.331
2065530.0,1769236274.371
2066265.0,1769236274.412
2066855.0,1769236274.451
2066804.0,1769236274.492
2067527.0,1769236274.533
2068513.0,1769236274.572
2069724.0,1769236274.61
2071097.0,1769236274.652
2072277.0,1769236274.692
2073816.0,1769236274.731
2075695.0,1769236274.772
2077147.0,1769236274.812
2078482.0,1769236274.852
2077705.0,1769236274.894
2075539.0,1769236274.93
2074454.0,1769236274.97
2074002.0,1769236275.012
2074206.0,1769236275.051
2075464.0,1769236275.092
2076221.0,1769236275.133
2076693.0,1769236275.172
2077459.0,1769236275.212
2078255.0,1769236275.253
2079348.0,1769236275.293
2080802.0,1769236275.331
2082443.0,1769236275.372
2083957.0,1769236275.411
2085370.0,1769236275.452
2087487.0,1769236275.493
2089264.0,1769236275.532
2090406.0,1769236275.572
2089674.0,1769236275.614
2089691.0,1769236275.651
2090368.0,1769236275.692
2091297.0,1769236275.732
2093364.0,1769236275.772
2095050.0,1769236275.812
2096370.0,1769236275.853
2097402.0,1769236275.893
2098568.0,1769236275.933
2102583.0,1769236276.011
2100544.0,1769236275.974
2104259.0,1769236276.051
2106793.0,1769236276.093
2109172.0,1769236276.132
2111716.0,1769236276.172
2113990.0,1769236276.213
2115434.0,1769236276.253
2114040.0,1769236276.294
2112432.0,1769236276.334
2110764.0,1769236276.371
2110361.0,1769236276.493
2109795.0,1769236276.412
2109872.0,1769236276.453
2110870.0,1769236276.532
2111822.0,1769236276.574
2112294.0,1769236276.613
2113927.0,1769236276.693
2113141.0,1769236276.653
2114732.0,1769236276.732
2115362.0,1769236276.772
2116314.0,1769236276.813
2116736.0,1769236276.852
2117925.0,1769236276.893
2118852.0,1769236276.934
2119272.0,1769236276.973
2116770.0,1769236277.014
2114476.0,1769236277.053
2112707.0,1769236277.092
2112119.0,1769236277.132
2111291.0,1769236277.173
2111853.0,1769236277.213
2112299.0,1769236277.333
2112089.0,1769236277.253
2112196.0,1769236277.295
2112459.0,1769236277.374
2113101.0,1769236277.413
2114128.0,1769236277.452
2114657.0,1769236277.493
2115796.0,1769236277.533
2116971.0,1769236277.573
2117847.0,1769236277.613
2119058.0,1769236277.654
2119820.0,1769236277.694
2116199.0,1769236277.773
2114201.0,1769236277.812
2118491.0,1769236277.734
2113219.0,1769236277.853
2112802.0,1769236277.895
2113037.0,1769236277.933
2113375.0,1769236277.973
2113289.0,1769236278.015
2113451.0,1769236278.054
2114196.0,1769236278.172
2113481.0,1769236278.133
2112994.0,1769236278.095
2114947.0,1769236278.213
2115518.0,1769236278.254
2115955.0,1769236278.294
2116979.0,1769236278.334
2117425.0,1769236278.377
2117132.0,1769236278.416
2115217.0,1769236278.456
2112834.0,1769236278.498
2111265.0,1769236278.536
2110729.0,1769236278.576
2110194.0,1769236278.617
2110749.0,1769236278.656
2110600.0,1769236278.697
2110138.0,1769236278.738
2109925.0,1769236278.777
2110044.0,1769236278.817
2110413.0,1769236278.859
2110773.0,1769236278.898
2111250.0,1769236278.938
2112256.0,1769236278.979
2112636.0,1769236279.019
2112657.0,1769236279.059
2109732.0,1769236279.101
2107075.0,1769236279.139
2104798.0,1769236279.179
2103574.0,1769236279.221
2102768.0,1769236279.258
2102530.0,1769236279.299
2102422.0,1769236279.339
2101557.0,1769236279.378
2101033.0,1769236279.419
2100638.0,1769236279.46
2100716.0,1769236279.5
2100835.0,1769236279.539
2101158.0,1769236279.581
2101929.0,1769236279.618
2102578.0,1769236279.658
2103111.0,1769236279.7
2097273.0,1769236279.778
2101120.0,1769236279.739
2091068.0,1769236279.859
2094086.0,1769236279.82
2088592.0,1769236279.9
2087136.0,1769236279.94
2085974.0,1769236279.979
2085353.0,1769236280.02
2084173.0,1769236280.061
2083150.0,1769236280.097
2082632.0,1769236280.138
2081696.0,1769236280.179
2081777.0,1769236280.218
2081910.0,1769236280.258
2081934.0,1769236280.3
2082411.0,1769236280.339
2082713.0,1769236280.379
2082543.0,1769236280.42
2079006.0,1769236280.46
2074555.0,1769236280.501
2070848.0,1769236280.541
2067689.0,1769236280.58
2065315.0,1769236280.619
2063723.0,1769236280.66
2063064.0,1769236280.7
2061715.0,1769236280.739
2060388.0,1769236280.781
2059276.0,1769236280.82
2058346.0,1769236280.86
2058411.0,1769236280.902
2058164.0,1769236280.939
2058432.0,1769236280.979
2058648.0,1769236281.02
2058882.0,1769236281.059
2059516.0,1769236281.1
2060314.0,1769236281.141
2060768.0,1769236281.18
2059061.0,1769236281.22
2054783.0,1769236281.262
2050445.0,1769236281.3
2047563.0,1769236281.339
2045321.0,1769236281.38
2043735.0,1769236281.42
2042165.0,1769236281.502
2043100.0,1769236281.46
2041566.0,1769236281.54
2040664.0,1769236281.581
2040174.0,1769236281.622
2040183.0,1769236281.659
2040227.0,1769236281.7
2040648.0,1769236281.741
2041024.0,1769236281.78
2042089.0,1769236281.819
2042736.0,1769236281.86
2043919.0,1769236281.9
2044185.0,1769236281.94
2042396.0,1769236281.981
2038468.0,1769236282.02
2035640.0,1769236282.061
2033975.0,1769236282.103
2032665.0,1769236282.141
2032384.0,1769236282.179
2032164.0,1769236282.221
2032304.0,1769236282.26
2031426.0,1769236282.301
2031255.0,1769236282.341
2031231.0,1769236282.38
2032172.0,1769236282.421
2032929.0,1769236282.462
2033317.0,1769236282.502
2034550.0,1769236282.539
2035760.0,1769236282.581
2037133.0,1769236282.62
2036379.0,1769236282.658
2033639.0,1769236282.7
2030921.0,1769236282.738
2027884.0,1769236282.821
2028529.0,1769236282.78
2027597.0,1769236282.86
2027728.0,1769236282.901
2028250.0,1769236282.942
2027956.0,1769236282.981
2028284.0,1769236283.021
2028593.0,1769236283.062
2029429.0,1769236283.102
2030178.0,1769236283.14
2031357.0,1769236283.181
2032936.0,1769236283.22
2033965.0,1769236283.261
2035893.0,1769236283.303
2037291.0,1769236283.341
2036280.0,1769236283.381
2033082.0,1769236283.423
2030363.0,1769236283.462
2029271.0,1769236283.501
2028555.0,1769236283.541
2028781.0,1769236283.58
2028816.0,1769236283.621
2029226.0,1769236283.662
2029461.0,1769236283.702
2029989.0,1769236283.742
2030468.0,1769236283.783
2031356.0,1769236283.82
2032508.0,1769236283.86
2034233.0,1769236283.902
2035670.0,1769236283.941
2036941.0,1769236283.981
2038654.0,1769236284.023
2040468.0,1769236284.062
2041361.0,1769236284.103
2039492.0,1769236284.143
2036766.0,1769236284.18
2035158.0,1769236284.221
2034749.0,1769236284.262
2034145.0,1769236284.302
2035161.0,1769236284.341
2035762.0,1769236284.383
2036179.0,1769236284.422
2036656.0,1769236284.462
2037405.0,1769236284.504
2038517.0,1769236284.541
2039846.0,1769236284.581
2041451.0,1769236284.622
2042596.0,1769236284.661
2044191.0,1769236284.702
2045135.0,1769236284.743
2046023.0,1769236284.782
2047835.0,1769236284.822
2048548.0,1769236284.863
2047204.0,1769236284.903
2044604.0,1769236284.942
2043498.0,1769236284.984
2042659.0,1769236285.021
2042742.0,1769236285.061
2043343.0,1769236285.103
2044093.0,1769236285.142
2045196.0,1769236285.182
2045519.0,1769236285.22
2046061.0,1769236285.26
2047175.0,1769236285.301
2048607.0,1769236285.342
2049935.0,1769236285.381
2051622.0,1769236285.421
2053011.0,1769236285.462
2054678.0,1769236285.502
2056616.0,1769236285.542
2058299.0,1769236285.583
2059944.0,1769236285.622
2058679.0,1769236285.663
2057123.0,1769236285.705
2056107.0,1769236285.741
2056034.0,1769236285.781
