bvp,time
45.58,1769235672.140625
39.69,1769235672.15625
35.2,1769235672.171875
32.17,1769235672.1875
30.33,1769235672.203125
29.06,1769235672.21875
27.51,1769235672.234375
24.83,1769235672.25
20.49,1769235672.265625
14.38,1769235672.28125
6.77,1769235672.296875
-1.84,1769235672.3125
-11.01,1769235672.328125
-20.42,1769235672.34375
-29.97,1769235672.359375
-39.81,1769235672.375
-50.4,1769235672.390625
-62.36,1769235672.40625
-76.15,1769235672.421875
-91.44,1769235672.4375
-106.47,1769235672.453125
-117.96,1769235672.46875
-121.86,1769235672.484375
-114.79,1769235672.5
-95.58,1769235672.515625
-66.15,1769235672.53125
-31.07,1769235672.546875
4.12,1769235672.5625
34.78,1769235672.578125
58.53,1769235672.59375
75.41,1769235672.609375
87.05,1769235672.625
95.25,1769235672.640625
101.0,1769235672.65625
104.28,1769235672.671875
104.57,1769235672.6875
101.63,1769235672.703125
95.91,1769235672.71875
88.53,1769235672.734375
80.76,1769235672.75
73.7,1769235672.765625
67.99,1769235672.78125
63.92,1769235672.796875
61.46,1769235672.8125
60.41,1769235672.828125
60.39,1769235672.84375
60.75,1769235672.859375
60.43,1769235672.875
58.2,1769235672.890625
53.19,1769235672.90625
45.16,1769235672.921875
34.8,1769235672.9375
22.94,1769235672.953125
10.56,1769235672.96875
-1.64,1769235672.984375
-13.47,1769235673.0
-25.59,1769235673.015625
-39.26,1769235673.03125
-55.62,1769235673.046875
-75.22,1769235673.0625
-97.08,1769235673.078125
-119.3,1769235673.09375
-138.26,1769235673.109375
-149.12,1769235673.125
-147.15,1769235673.140625
-129.87,1769235673.15625
-98.32,1769235673.171875
-56.78,1769235673.1875
-12.09,1769235673.203125
28.81,1769235673.21875
59.23,1769235673.234375
75.52,1769235673.25
77.79,1769235673.265625
69.12,1769235673.28125
53.19,1769235673.296875
32.6,1769235673.3125
8.76,1769235673.328125
-18.44,1769235673.34375
-48.75,1769235673.359375
-82.78,1769235673.375
-119.56,1769235673.390625
-156.38,1769235673.40625
-189.64,1769235673.421875
-217.15,1769235673.4375
-239.26,1769235673.453125
-257.63,1769235673.46875
-274.84,1769235673.484375
-279.48,1769235673.5
-263.07,1769235673.515625
-224.71,1769235673.53125
-171.67,1769235673.546875
-113.22,1769235673.5625
-56.72,1769235673.578125
-10.09,1769235673.59375
26.68,1769235673.609375
52.83,1769235673.625
67.95,1769235673.640625
70.91,1769235673.65625
62.59,1769235673.671875
45.11,1769235673.6875
24.0,1769235673.703125
6.04,1769235673.71875
-2.96,1769235673.734375
0.96,1769235673.75
17.72,1769235673.765625
44.5,1769235673.78125
75.14,1769235673.796875
103.38,1769235673.8125
124.97,1769235673.828125
138.81,1769235673.84375
145.8,1769235673.859375
147.4,1769235673.875
145.19,1769235673.890625
139.44,1769235673.90625
130.22,1769235673.921875
117.03,1769235673.9375
100.17,1769235673.953125
81.28,1769235673.96875
63.07,1769235673.984375
47.96,1769235674.0
37.05,1769235674.015625
30.22,1769235674.03125
25.88,1769235674.046875
22.25,1769235674.0625
17.53,1769235674.078125
10.83,1769235674.09375
2.37,1769235674.109375
-6.75,1769235674.125
-15.41,1769235674.140625
-23.14,1769235674.15625
-30.11,1769235674.171875
-37.26,1769235674.1875
-45.58,1769235674.203125
-55.94,1769235674.21875
-68.81,1769235674.234375
-84.13,1769235674.25
-101.17,1769235674.265625
-118.53,1769235674.28125
-133.89,1769235674.296875
-144.05,1769235674.3125
-145.72,1769235674.328125
-136.42,1769235674.34375
-115.66,1769235674.359375
-85.43,1769235674.375
-49.8,1769235674.390625
-13.57,1769235674.40625
19.25,1769235674.421875
46.42,1769235674.4375
67.65,1769235674.453125
83.88,1769235674.46875
96.3,1769235674.484375
105.56,1769235674.5
111.65,1769235674.515625
114.24,1769235674.53125
113.18,1769235674.546875
108.93,1769235674.5625
102.56,1769235674.578125
95.46,1769235674.59375
88.86,1769235674.609375
83.51,1769235674.625
79.5,1769235674.640625
76.4,1769235674.65625
73.66,1769235674.671875
70.86,1769235674.6875
67.94,1769235674.703125
65.07,1769235674.71875
62.48,1769235674.734375
60.14,1769235674.75
57.73,1769235674.765625
54.65,1769235674.78125
50.27,1769235674.796875
44.11,1769235674.8125
35.87,1769235674.828125
25.46,1769235674.84375
12.92,1769235674.859375
-1.42,1769235674.875
-16.69,1769235674.890625
-31.09,1769235674.90625
-41.85,1769235674.921875
-45.6,1769235674.9375
-39.31,1769235674.953125
-21.45,1769235674.96875
7.24,1769235674.984375
43.67,1769235675.0
83.25,1769235675.015625
121.33,1769235675.03125
154.54,1769235675.046875
181.51,1769235675.0625
202.59,1769235675.078125
219.06,1769235675.09375
232.08,1769235675.109375
242.2,1769235675.125
249.38,1769235675.140625
253.5,1769235675.15625
254.71,1769235675.171875
253.51,1769235675.1875
250.49,1769235675.203125
245.86,1769235675.21875
239.47,1769235675.234375
230.94,1769235675.25
220.13,1769235675.265625
207.44,1769235675.28125
193.67,1769235675.296875
179.51,1769235675.3125
165.02,1769235675.328125
149.54,1769235675.34375
132.01,1769235675.359375
111.76,1769235675.375
89.07,1769235675.390625
65.32,1769235675.40625
42.56,1769235675.421875
22.65,1769235675.4375
6.55,1769235675.453125
-6.01,1769235675.46875
-16.39,1769235675.484375
-26.62,1769235675.5
-38.92,1769235675.515625
-55.05,1769235675.53125
-75.46,1769235675.546875
-98.39,1769235675.5625
-119.57,1769235675.578125
-132.87,1769235675.59375
-132.32,1769235675.609375
-114.63,1769235675.625
-81.23,1769235675.640625
-38.42,1769235675.65625
4.54,1769235675.671875
38.71,1769235675.6875
58.58,1769235675.703125
63.44,1769235675.71875
56.61,1769235675.734375
43.12,1769235675.75
27.31,1769235675.765625
11.46,1769235675.78125
-4.18,1769235675.796875
-20.33,1769235675.8125
-37.63,1769235675.828125
-56.06,1769235675.84375
-74.99,1769235675.859375
-93.57,1769235675.875
-110.96,1769235675.890625
-126.61,1769235675.90625
-140.14,1769235675.921875
-151.38,1769235675.9375
-160.37,1769235675.953125
-167.4,1769235675.96875
-172.91,1769235675.984375
-177.34,1769235676.0
-180.94,1769235676.015625
-183.57,1769235676.03125
-184.61,1769235676.046875
-182.77,1769235676.0625
-176.31,1769235676.078125
-163.55,1769235676.09375
-143.76,1769235676.109375
-118.21,1769235676.125
-90.61,1769235676.140625
-66.54,1769235676.15625
-51.58,1769235676.171875
-49.07,1769235676.1875
-58.55,1769235676.203125
-75.83,1769235676.21875
-94.84,1769235676.234375
-110.37,1769235676.25
-120.29,1769235676.265625
-126.02,1769235676.28125
-131.4,1769235676.296875
-140.4,1769235676.3125
-155.33,1769235676.328125
-175.98,1769235676.34375
-200.2,1769235676.359375
-225.13,1769235676.375
-248.49,1769235676.390625
-269.13,1769235676.40625
-287.01,1769235676.421875
-302.66,1769235676.4375
-316.59,1769235676.453125
-329.19,1769235676.46875
-340.77,1769235676.484375
-351.74,1769235676.5
-362.51,1769235676.515625
-372.93,1769235676.53125
-381.87,1769235676.546875
-386.99,1769235676.5625
-385.47,1769235676.578125
-375.23,1769235676.59375
-356.24,1769235676.609375
-330.87,1769235676.625
-303.1,1769235676.640625
-276.89,1769235676.65625
-254.33,1769235676.671875
-234.96,1769235676.6875
-216.27,1769235676.703125
-195.27,1769235676.71875
-169.95,1769235676.734375
-140.05,1769235676.75
-106.73,1769235676.765625
-71.61,1769235676.78125
-35.69,1769235676.796875
1.09,1769235676.8125
39.81,1769235676.828125
81.95,1769235676.84375
128.42,1769235676.859375
178.59,1769235676.875
229.67,1769235676.890625
276.91,1769235676.90625
314.75,1769235676.921875
338.61,1769235676.9375
346.6,1769235676.953125
340.22,1769235676.96875
323.73,1769235676.984375
302.45,1769235677.0
280.81,1769235677.015625
261.16,1769235677.03125
243.82,1769235677.046875
228.01,1769235677.0625
213.02,1769235677.078125
198.85,1769235677.09375
186.02,1769235677.109375
174.94,1769235677.125
165.33,1769235677.140625
156.01,1769235677.15625
145.2,1769235677.171875
131.07,1769235677.1875
112.14,1769235677.203125
87.54,1769235677.21875
57.14,1769235677.234375
21.64,1769235677.25
-17.12,1769235677.265625
-55.89,1769235677.28125
-90.11,1769235677.296875
-114.35,1769235677.3125
-123.56,1769235677.328125
-114.34,1769235677.34375
-86.17,1769235677.359375
-41.81,1769235677.375
13.23,1769235677.390625
72.06,1769235677.40625
128.03,1769235677.421875
176.08,1769235677.4375
213.29,1769235677.453125
238.66,1769235677.46875
252.36,1769235677.484375
255.08,1769235677.5
247.75,1769235677.515625
231.71,1769235677.53125
209.0,1769235677.546875
182.59,1769235677.5625
156.1,1769235677.578125
133.01,1769235677.59375
115.69,1769235677.609375
104.67,1769235677.625
98.65,1769235677.640625
95.08,1769235677.65625
91.32,1769235677.671875
85.58,1769235677.6875
77.37,1769235677.703125
67.31,1769235677.71875
56.44,1769235677.734375
45.51,1769235677.75
34.41,1769235677.765625
22.27,1769235677.78125
7.78,1769235677.796875
-10.29,1769235677.8125
-32.83,1769235677.828125
-60.15,1769235677.84375
-91.67,1769235677.859375
-125.36,1769235677.875
-157.3,1769235677.890625
-181.77,1769235677.90625
-192.42,1769235677.921875
-184.3,1769235677.9375
-156.1,1769235677.953125
-111.26,1769235677.96875
-57.32,1769235677.984375
-3.48,1769235678.0
42.39,1769235678.015625
75.99,1769235678.03125
96.84,1769235678.046875
107.0,1769235678.0625
108.82,1769235678.078125
103.61,1769235678.09375
91.49,1769235678.109375
72.55,1769235678.125
48.22,1769235678.140625
21.67,1769235678.15625
-2.88,1769235678.171875
-21.82,1769235678.1875
-33.71,1769235678.203125
-39.72,1769235678.21875
-43.03,1769235678.234375
-47.1,1769235678.25
-54.22,1769235678.265625
-64.71,1769235678.28125
-77.3,1769235678.296875
-90.11,1769235678.3125
-101.81,1769235678.328125
-112.19,1769235678.34375
-121.97,1769235678.359375
-132.16,1769235678.375
-143.46,1769235678.390625
-155.99,1769235678.40625
-169.71,1769235678.421875
-184.83,1769235678.4375
-202.04,1769235678.453125
-221.84,1769235678.46875
-243.62,1769235678.484375
-264.79,1769235678.5
-280.78,1769235678.515625
-286.18,1769235678.53125
-276.58,1769235678.546875
-250.13,1769235678.5625
-208.08,1769235678.578125
-154.12,1769235678.59375
-92.95,1769235678.609375
-29.09,1769235678.625
33.68,1769235678.640625
92.11,1769235678.65625
143.11,1769235678.671875
183.83,1769235678.6875
212.07,1769235678.703125
226.92,1769235678.71875
228.96,1769235678.734375
220.11,1769235678.75
203.04,1769235678.765625
180.73,1769235678.78125
156.4,1769235678.796875
133.38,1769235678.8125
114.97,1769235678.828125
103.82,1769235678.84375
101.23,1769235678.859375
106.52,1769235678.875
117.13,1769235678.890625
129.27,1769235678.90625
139.01,1769235678.921875
143.49,1769235678.9375
141.66,1769235678.953125
134.35,1769235678.96875
123.99,1769235678.984375
113.51,1769235679.0
105.2,1769235679.015625
99.61,1769235679.03125
94.88,1769235679.046875
86.8,1769235679.0625
69.81,1769235679.078125
38.98,1769235679.09375
-7.5,1769235679.109375
-66.36,1769235679.125
-128.86,1769235679.140625
-182.78,1769235679.15625
-216.24,1769235679.171875
-221.97,1769235679.1875
-199.84,1769235679.203125
-156.72,1769235679.21875
-103.39,1769235679.234375
-50.34,1769235679.25
-4.37,1769235679.265625
32.39,1769235679.28125
61.13,1769235679.296875
83.88,1769235679.3125
101.55,1769235679.328125
113.42,1769235679.34375
118.03,1769235679.359375
114.4,1769235679.375
102.8,1769235679.390625
84.5,1769235679.40625
60.89,1769235679.421875
32.85,1769235679.4375
0.6,1769235679.453125
-35.95,1769235679.46875
-76.23,1769235679.484375
-118.37,1769235679.5
-159.13,1769235679.515625
-194.49,1769235679.53125
-220.92,1769235679.546875
-236.64,1769235679.5625
-242.45,1769235679.578125
-241.4,1769235679.59375
-237.63,1769235679.609375
-234.65,1769235679.625
-234.08,1769235679.640625
-235.3,1769235679.65625
-236.1,1769235679.671875
-233.74,1769235679.6875
-225.93,1769235679.703125
-211.36,1769235679.71875
-189.58,1769235679.734375
-160.8,1769235679.75
-125.54,1769235679.765625
-84.5,1769235679.78125
-38.56,1769235679.796875
11.19,1769235679.8125
63.33,1769235679.828125
116.0,1769235679.84375
166.92,1769235679.859375
213.42,1769235679.875
252.88,1769235679.890625
283.14,1769235679.90625
302.9,1769235679.921875
311.9,1769235679.9375
310.79,1769235679.953125
300.94,1769235679.96875
284.34,1769235679.984375
263.5,1769235680.0
241.33,1769235680.015625
220.69,1769235680.03125
203.79,1769235680.046875
191.48,1769235680.0625
182.92,1769235680.078125
175.75,1769235680.09375
166.75,1769235680.109375
152.85,1769235680.125
131.91,1769235680.140625
103.23,1769235680.15625
67.59,1769235680.171875
26.97,1769235680.1875
-16.04,1769235680.203125
-58.92,1769235680.21875
-99.67,1769235680.234375
-137.13,1769235680.25
-170.78,1769235680.265625
-200.19,1769235680.28125
-224.31,1769235680.296875
-240.97,1769235680.3125
-247.06,1769235680.328125
-239.29,1769235680.34375
-215.59,1769235680.359375
-176.35,1769235680.375
-125.09,1769235680.390625
-67.89,1769235680.40625
-11.9,1769235680.421875
36.6,1769235680.4375
73.81,1769235680.453125
98.9,1769235680.46875
113.4,1769235680.484375
119.73,1769235680.5
119.84,1769235680.515625
114.46,1769235680.53125
103.35,1769235680.546875
86.22,1769235680.5625
63.73,1769235680.578125
37.97,1769235680.59375
12.01,1769235680.609375
-11.22,1769235680.625
-29.99,1769235680.640625
-44.32,1769235680.65625
-55.53,1769235680.671875
-65.28,1769235680.6875
-74.58,1769235680.703125
-83.37,1769235680.71875
-90.9,1769235680.734375
-96.42,1769235680.75
-99.96,1769235680.765625
-102.46,1769235680.78125
-105.45,1769235680.796875
-110.43,1769235680.8125
-118.47,1769235680.828125
-130.1,1769235680.84375
-145.46,1769235680.859375
-164.12,1769235680.875
-184.8,1769235680.890625
-204.93,1769235680.90625
-220.61,1769235680.921875
-227.46,1769235680.9375
-221.79,1769235680.953125
-201.85,1769235680.96875
-168.29,1769235680.984375
-123.68,1769235681.0
-71.55,1769235681.015625
-15.45,1769235681.03125
41.38,1769235681.046875
95.83,1769235681.0625
144.61,1769235681.078125
184.43,1769235681.09375
212.56,1769235681.109375
227.74,1769235681.125
230.62,1769235681.140625
223.58,1769235681.15625
209.83,1769235681.171875
192.46,1769235681.1875
173.87,1769235681.203125
155.65,1769235681.21875
138.77,1769235681.234375
123.72,1769235681.25
110.51,1769235681.265625
98.56,1769235681.28125
86.75,1769235681.296875
73.87,1769235681.3125
59.21,1769235681.328125
43.03,1769235681.34375
26.43,1769235681.359375
10.92,1769235681.375
-2.36,1769235681.390625
-13.31,1769235681.40625
-22.94,1769235681.421875
-33.04,1769235681.4375
-45.59,1769235681.453125
-62.08,1769235681.46875
-82.85,1769235681.484375
-106.55,1769235681.5
-129.96,1769235681.515625
-148.11,1769235681.53125
-155.24,1769235681.546875
-146.28,1769235681.5625
-118.67,1769235681.578125
-73.56,1769235681.59375
-15.86,1769235681.609375
47.01,1769235681.625
107.31,1769235681.640625
159.16,1769235681.65625
199.66,1769235681.671875
228.75,1769235681.6875
248.04,1769235681.703125
259.43,1769235681.71875
264.1,1769235681.734375
262.44,1769235681.75
254.53,1769235681.765625
240.91,1769235681.78125
222.99,1769235681.796875
202.96,1769235681.8125
183.27,1769235681.828125
165.81,1769235681.84375
151.34,1769235681.859375
139.45,1769235681.875
128.9,1769235681.890625
118.39,1769235681.90625
107.12,1769235681.921875
95.01,1769235681.9375
82.42,1769235681.953125
69.66,1769235681.96875
56.7,1769235681.984375
43.53,1769235682.0
30.51,1769235682.015625
18.64,1769235682.03125
9.12,1769235682.046875
2.33,1769235682.0625
-3.07,1769235682.078125
-10.23,1769235682.09375
-23.05,1769235682.109375
-44.18,1769235682.125
-73.17,1769235682.140625
-105.87,1769235682.15625
-135.43,1769235682.171875
-154.69,1769235682.1875
-158.76,1769235682.203125
-146.56,1769235682.21875
-120.83,1769235682.234375
-86.69,1769235682.25
-49.75,1769235682.265625
-14.48,1769235682.28125
16.33,1769235682.296875
41.22,1769235682.3125
59.33,1769235682.328125
69.97,1769235682.34375
72.78,1769235682.359375
68.44,1769235682.375
59.27,1769235682.390625
49.12,1769235682.40625
42.41,1769235682.421875
42.6,1769235682.4375
50.94,1769235682.453125
66.04,1769235682.46875
84.53,1769235682.484375
102.33,1769235682.5
116.09,1769235682.515625
123.86,1769235682.53125
125.07,1769235682.546875
119.94,1769235682.5625
108.77,1769235682.578125
91.46,1769235682.59375
67.59,1769235682.609375
36.8,1769235682.625
-0.54,1769235682.640625
-42.86,1769235682.65625
-87.25,1769235682.671875
-130.11,1769235682.6875
-167.97,1769235682.703125
-198.62,1769235682.71875
-221.53,1769235682.734375
-237.55,1769235682.75
-248.0,1769235682.765625
-253.53,1769235682.78125
-253.54,1769235682.796875
-246.24,1769235682.8125
-229.53,1769235682.828125
-201.88,1769235682.84375
-163.19,1769235682.859375
-115.06,1769235682.875
-60.6,1769235682.890625
-3.95,1769235682.90625
50.31,1769235682.921875
97.95,1769235682.9375
135.71,1769235682.953125
161.77,1769235682.96875
175.91,1769235682.984375
179.37,1769235683.0
174.51,1769235683.015625
164.47,1769235683.03125
152.62,1769235683.046875
141.92,1769235683.0625
134.12,1769235683.078125
129.27,1769235683.09375
125.82,1769235683.109375
121.59,1769235683.125
115.11,1769235683.140625
106.62,1769235683.15625
97.93,1769235683.171875
91.22,1769235683.1875
87.35,1769235683.203125
84.84,1769235683.21875
80.1,1769235683.234375
68.99,1769235683.25
48.88,1769235683.265625
20.19,1769235683.28125
-13.45,1769235683.296875
-46.28,1769235683.3125
-72.39,1769235683.328125
-87.45,1769235683.34375
-89.77,1769235683.359375
-80.21,1769235683.375
-61.6,1769235683.390625
-37.8,1769235683.40625
-13.0,1769235683.421875
8.74,1769235683.4375
23.85,1769235683.453125
29.68,1769235683.46875
24.92,1769235683.484375
10.01,1769235683.5
-12.95,1769235683.515625
-40.64,1769235683.53125
-69.37,1769235683.546875
-96.09,1769235683.5625
-119.12,1769235683.578125
-138.4,1769235683.59375
-155.16,1769235683.609375
-170.75,1769235683.625
-185.08,1769235683.640625
-195.58,1769235683.65625
-197.59,1769235683.671875
-186.49,1769235683.6875
-160.83,1769235683.703125
-124.62,1769235683.71875
-87.35,1769235683.734375
-61.11,1769235683.75
-56.36,1769235683.765625
-78.38,1769235683.78125
-126.01,1769235683.796875
-192.86,1769235683.8125
-269.97,1769235683.828125
-347.9,1769235683.84375
-417.92,1769235683.859375
-472.47,1769235683.875
-505.51,1769235683.890625
-513.73,1769235683.90625
-497.56,1769235683.921875
-461.47,1769235683.9375
-412.7,1769235683.953125
-358.94,1769235683.96875
-306.05,1769235683.984375
-257.08,1769235684.0
-212.55,1769235684.015625
-171.54,1769235684.03125
-132.7,1769235684.046875
-94.69,1769235684.0625
-56.09,1769235684.078125
-15.31,1769235684.09375
28.96,1769235684.109375
76.91,1769235684.125
126.88,1769235684.140625
175.28,1769235684.15625
217.39,1769235684.171875
248.9,1769235684.1875
267.34,1769235684.203125
272.74,1769235684.21875
267.2,1769235684.234375
253.69,1769235684.25
234.91,1769235684.265625
212.58,1769235684.28125
187.64,1769235684.296875
160.64,1769235684.3125
132.04,1769235684.328125
102.09,1769235684.34375
70.63,1769235684.359375
37.44,1769235684.375
3.01,1769235684.390625
-30.5,1769235684.40625
-59.09,1769235684.421875
-77.79,1769235684.4375
-82.44,1769235684.453125
-71.17,1769235684.46875
-44.88,1769235684.484375
-6.58,1769235684.5
39.81,1769235684.515625
90.37,1769235684.53125
141.24,1769235684.546875
188.3,1769235684.5625
226.97,1769235684.578125
252.89,1769235684.59375
263.2,1769235684.609375
257.72,1769235684.625
239.31,1769235684.640625
212.88,1769235684.65625
183.77,1769235684.671875
156.08,1769235684.6875
131.86,1769235684.703125
111.3,1769235684.71875
93.51,1769235684.734375
77.4,1769235684.75
62.23,1769235684.765625
47.72,1769235684.78125
33.92,1769235684.796875
21.05,1769235684.8125
9.33,1769235684.828125
-1.18,1769235684.84375
-10.73,1769235684.859375
-19.99,1769235684.875
-30.11,1769235684.890625
-42.59,1769235684.90625
-58.8,1769235684.921875
-79.32,1769235684.9375
-103.15,1769235684.953125
-127.28,1769235684.96875
-146.92,1769235684.984375
-156.55,1769235685.0
-151.64,1769235685.015625
-130.28,1769235685.03125
-94.13,1769235685.046875
-48.04,1769235685.0625
1.53,1769235685.078125
48.51,1769235685.09375
88.81,1769235685.109375
120.8,1769235685.125
144.59,1769235685.140625
160.76,1769235685.15625
169.41,1769235685.171875
170.17,1769235685.1875
162.88,1769235685.203125
148.46,1769235685.21875
129.24,1769235685.234375
108.38,1769235685.25
88.78,1769235685.265625
72.01,1769235685.28125
57.87,1769235685.296875
44.86,1769235685.3125
31.2,1769235685.328125
15.86,1769235685.34375
-0.96,1769235685.359375
-18.05,1769235685.375
-34.12,1769235685.390625
-48.6,1769235685.40625
-62.2,1769235685.421875
-76.65,1769235685.4375
-93.91,1769235685.453125
-115.4,1769235685.46875
-141.37,1769235685.484375
-170.95,1769235685.5
-202.31,1769235685.515625
-232.91,1769235685.53125
-259.63,1769235685.546875
-278.94,1769235685.5625
-287.45,1769235685.578125
-282.73,1769235685.59375
-264.23,1769235685.609375
-233.54,1769235685.625
-193.97,1769235685.640625
-149.15,1769235685.65625
-101.65,1769235685.671875
-52.27,1769235685.6875
-0.63,1769235685.703125
53.33,1769235685.71875
107.93,1769235685.734375
159.32,1769235685.75
202.47,1769235685.765625
233.17,1769235685.78125
249.85,1769235685.796875
254.24,1769235685.8125
250.56,1769235685.828125
243.58,1769235685.84375
236.66,1769235685.859375
230.72,1769235685.875
224.52,1769235685.890625
216.21,1769235685.90625
204.88,1769235685.921875
191.47,1769235685.9375
178.38,1769235685.953125
168.11,1769235685.96875
161.74,1769235685.984375
158.13,1769235686.0
154.14,1769235686.015625
145.96,1769235686.03125
130.5,1769235686.046875
106.34,1769235686.0625
73.57,1769235686.078125
33.22,1769235686.09375
-13.24,1769235686.109375
-63.56,1769235686.125
-113.92,1769235686.140625
-158.37,1769235686.15625
-189.59,1769235686.171875
-200.91,1769235686.1875
-188.89,1769235686.203125
-155.15,1769235686.21875
-106.12,1769235686.234375
-50.82,1769235686.25
2.33,1769235686.265625
47.8,1769235686.28125
83.33,1769235686.296875
108.4,1769235686.3125
122.26,1769235686.328125
123.02,1769235686.34375
108.54,1769235686.359375
78.6,1769235686.375
36.71,1769235686.390625
-9.84,1769235686.40625
-51.88,1769235686.421875
-81.5,1769235686.4375
-94.67,1769235686.453125
-92.18,1769235686.46875
-78.59,1769235686.484375
-59.95,1769235686.5
-41.52,1769235686.515625
-26.62,1769235686.53125
-16.73,1769235686.546875
-12.23,1769235686.5625
-13.27,1769235686.578125
-20.02,1769235686.59375
-32.38,1769235686.609375
-49.64,1769235686.625
-70.28,1769235686.640625
-92.15,1769235686.65625
-112.77,1769235686.671875
-129.59,1769235686.6875
-140.11,1769235686.703125
-141.84,1769235686.71875
-132.46,1769235686.734375
-110.16,1769235686.75
-74.4,1769235686.765625
-26.59,1769235686.78125
29.74,1769235686.796875
89.42,1769235686.8125
146.96,1769235686.828125
198.05,1769235686.84375
240.47,1769235686.859375
274.09,1769235686.875
299.7,1769235686.890625
317.63,1769235686.90625
326.91,1769235686.921875
325.58,1769235686.9375
311.91,1769235686.953125
285.75,1769235686.96875
249.09,1769235686.984375
205.49,1769235687.0
158.69,1769235687.015625
111.5,1769235687.03125
65.68,1769235687.046875
22.76,1769235687.0625
-15.1,1769235687.078125
-45.19,1769235687.09375
-65.45,1769235687.109375
-76.17,1769235687.125
-80.91,1769235687.140625
-85.97,1769235687.15625
-98.42,1769235687.171875
-123.87,1769235687.1875
-164.96,1769235687.203125
-221.02,1769235687.21875
-288.35,1769235687.234375
-360.77,1769235687.25
-430.21,1769235687.265625
-487.68,1769235687.28125
-525.03,1769235687.296875
-537.12,1769235687.3125
-523.52,1769235687.328125
-488.77,1769235687.34375
-440.63,1769235687.359375
-387.08,1769235687.375
-333.64,1769235687.390625
-282.17,1769235687.40625
-231.56,1769235687.421875
-179.39,1769235687.4375
-123.88,1769235687.453125
-65.14,1769235687.46875
-5.48,1769235687.484375
51.04,1769235687.5
99.63,1769235687.515625
136.08,1769235687.53125
158.04,1769235687.546875
165.85,1769235687.5625
162.44,1769235687.578125
152.28,1769235687.59375
139.69,1769235687.609375
127.46,1769235687.625
116.44,1769235687.640625
106.04,1769235687.65625
95.41,1769235687.671875
84.28,1769235687.6875
73.08,1769235687.703125
62.29,1769235687.71875
51.65,1769235687.734375
39.85,1769235687.75
24.9,1769235687.765625
4.98,1769235687.78125
-20.7,1769235687.796875
-51.22,1769235687.8125
-83.88,1769235687.828125
-114.55,1769235687.84375
-138.65,1769235687.859375
-152.17,1769235687.875
-152.78,1769235687.890625
-140.14,1769235687.90625
-115.7,1769235687.921875
-81.83,1769235687.9375
-40.99,1769235687.953125
4.61,1769235687.96875
52.82,1769235687.984375
100.91,1769235688.0
145.25,1769235688.015625
181.63,1769235688.03125
206.34,1769235688.046875
217.39,1769235688.0625
215.27,1769235688.078125
202.81,1769235688.09375
184.15,1769235688.109375
163.32,1769235688.125
143.11,1769235688.140625
124.72,1769235688.15625
108.0,1769235688.171875
92.13,1769235688.1875
76.43,1769235688.203125
60.75,1769235688.21875
45.62,1769235688.234375
31.85,1769235688.25
20.05,1769235688.265625
10.21,1769235688.28125
1.37,1769235688.296875
-8.14,1769235688.3125
-20.32,1769235688.328125
-36.93,1769235688.34375
-58.92,1769235688.359375
-85.91,1769235688.375
-115.84,1769235688.390625
-145.07,1769235688.40625
-168.83,1769235688.421875
-182.21,1769235688.4375
-181.34,1769235688.453125
-164.53,1769235688.46875
-132.69,1769235688.484375
-89.28,1769235688.5
-39.38,1769235688.515625
11.45,1769235688.53125
58.33,1769235688.546875
97.75,1769235688.5625
127.72,1769235688.578125
147.59,1769235688.59375
157.63,1769235688.609375
158.71,1769235688.625
152.13,1769235688.640625
139.54,1769235688.65625
122.88,1769235688.671875
104.21,1769235688.6875
85.38,1769235688.703125
67.64,1769235688.71875
51.47,1769235688.734375
36.64,1769235688.75
22.51,1769235688.765625
8.54,1769235688.78125
-5.43,1769235688.796875
-19.2,1769235688.8125
-32.49,1769235688.828125
-45.27,1769235688.84375
-58.06,1769235688.859375
-71.8,1769235688.875
-87.75,1769235688.890625
-107.03,1769235688.90625
-130.18,1769235688.921875
-156.66,1769235688.9375
-184.56,1769235688.953125
-210.56,1769235688.96875
-230.45,1769235688.984375
-240.2,1769235689.0
-237.04,1769235689.015625
-220.19,1769235689.03125
-190.97,1769235689.046875
-152.03,1769235689.0625
-106.6,1769235689.078125
-57.79,1769235689.09375
-8.57,1769235689.109375
37.91,1769235689.125
78.19,1769235689.140625
108.74,1769235689.15625
126.93,1769235689.171875
131.99,1769235689.1875
125.59,1769235689.203125
111.56,1769235689.21875
94.78,1769235689.234375
79.72,1769235689.25
69.2,1769235689.265625
63.95,1769235689.28125
62.98,1769235689.296875
64.52,1769235689.3125
67.11,1769235689.328125
70.26,1769235689.34375
74.4,1769235689.359375
80.31,1769235689.375
88.21,1769235689.390625
97.19,1769235689.40625
105.1,1769235689.421875
109.2,1769235689.4375
106.93,1769235689.453125
96.65,1769235689.46875
78.22,1769235689.484375
53.18,1769235689.5
24.74,1769235689.515625
-2.46,1769235689.53125
-23.15,1769235689.546875
-32.59,1769235689.5625
-27.98,1769235689.578125
-9.39,1769235689.59375
20.08,1769235689.609375
55.28,1769235689.625
90.67,1769235689.640625
121.84,1769235689.65625
146.4,1769235689.671875
163.75,1769235689.6875
174.3,1769235689.703125
178.64,1769235689.71875
177.34,1769235689.734375
171.26,1769235689.75
161.97,1769235689.765625
151.8,1769235689.78125
143.2,1769235689.796875
137.72,1769235689.8125
135.21,1769235689.828125
133.79,1769235689.84375
130.65,1769235689.859375
123.42,1769235689.875
111.21,1769235689.890625
95.09,1769235689.90625
77.43,1769235689.921875
60.91,1769235689.9375
47.28,1769235689.953125
36.79,1769235689.96875
28.09,1769235689.984375
18.74,1769235690.0
5.95,1769235690.015625
-12.76,1769235690.03125
-38.81,1769235690.046875
-71.88,1769235690.0625
-109.41,1769235690.078125
-146.47,1769235690.09375
-176.52,1769235690.109375
-192.91,1769235690.125
-190.94,1769235690.140625
-169.46,1769235690.15625
-131.35,1769235690.171875
-82.58,1769235690.1875
-30.27,1769235690.203125
19.35,1769235690.21875
62.13,1769235690.234375
96.17,1769235690.25
120.87,1769235690.265625
136.12,1769235690.28125
141.8,1769235690.296875
138.14,1769235690.3125
126.37,1769235690.328125
109.06,1769235690.34375
89.63,1769235690.359375
71.38,1769235690.375
56.31,1769235690.390625
44.62,1769235690.40625
35.01,1769235690.421875
25.67,1769235690.4375
15.42,1769235690.453125
4.31,1769235690.46875
-6.6,1769235690.484375
-15.98,1769235690.5
-23.17,1769235690.515625
-28.71,1769235690.53125
-34.31,1769235690.546875
-42.27,1769235690.5625
-54.76,1769235690.578125
-73.11,1769235690.59375
-97.32,1769235690.609375
-125.62,1769235690.625
-154.46,1769235690.640625
-178.77,1769235690.65625
-192.93,1769235690.671875
-192.2,1769235690.6875
-174.29,1769235690.703125
-140.24,1769235690.71875
-94.31,1769235690.734375
-42.77,1769235690.75
7.97,1769235690.765625
52.9,1769235690.78125
89.17,1769235690.796875
115.76,1769235690.8125
132.64,1769235690.828125
140.1,1769235690.84375
138.59,1769235690.859375
129.02,1769235690.875
113.1,1769235690.890625
93.3,1769235690.90625
72.28,1769235690.921875
52.04,1769235690.9375
33.47,1769235690.953125
16.31,1769235690.96875
-0.16,1769235690.984375
-16.4,1769235691.0
-32.13,1769235691.015625
-46.41,1769235691.03125
-58.27,1769235691.046875
-67.41,1769235691.0625
-74.65,1769235691.078125
-81.82,1769235691.09375
-91.31,1769235691.109375
-105.28,1769235691.125
-124.86,1769235691.140625
-149.58,1769235691.15625
-176.93,1769235691.171875
-202.55,1769235691.1875
-220.86,1769235691.203125
-226.35,1769235691.21875
-215.11,1769235691.234375
-186.13,1769235691.25
-141.87,1769235691.265625
-87.61,1769235691.28125
-30.1,1769235691.296875
24.37,1769235691.3125
71.22,1769235691.328125
108.21,1769235691.34375
134.92,1769235691.359375
152.0,1769235691.375
160.37,1769235691.390625
160.91,1769235691.40625
154.58,1769235691.421875
142.72,1769235691.4375
127.11,1769235691.453125
109.77,1769235691.46875
92.5,1769235691.484375
76.45,1769235691.5
61.94,1769235691.515625
48.61,1769235691.53125
35.84,1769235691.546875
23.19,1769235691.5625
10.56,1769235691.578125
-1.76,1769235691.59375
-13.49,1769235691.609375
-24.6,1769235691.625
-35.64,1769235691.640625
-47.79,1769235691.65625
-62.62,1769235691.671875
-81.54,1769235691.6875
-105.05,1769235691.703125
-131.91,1769235691.71875
-158.81,1769235691.734375
-180.62,1769235691.75
-191.58,1769235691.765625
-186.92,1769235691.78125
-164.42,1769235691.796875
-125.25,1769235691.8125
-73.71,1769235691.828125
-16.02,1769235691.84375
41.4,1769235691.859375
93.34,1769235691.875
136.51,1769235691.890625
169.47,1769235691.90625
192.12,1769235691.921875
205.17,1769235691.9375
209.95,1769235691.953125
208.41,1769235691.96875
203.19,1769235691.984375
197.41,1769235692.0
194.09,1769235692.015625
195.55,1769235692.03125
202.68,1769235692.046875
214.83,1769235692.0625
230.1,1769235692.078125
246.05,1769235692.09375
260.5,1769235692.109375
271.94,1769235692.125
279.49,1769235692.140625
282.5,1769235692.15625
280.21,1769235692.171875
271.78,1769235692.1875
256.67,1769235692.203125
235.34,1769235692.21875
209.46,1769235692.234375
181.72,1769235692.25
154.91,1769235692.265625
130.88,1769235692.28125
109.9,1769235692.296875
90.8,1769235692.3125
71.54,1769235692.328125
50.2,1769235692.34375
25.51,1769235692.359375
-3.29,1769235692.375
-36.43,1769235692.390625
-73.25,1769235692.40625
-111.23,1769235692.421875
-145.52,1769235692.4375
-169.74,1769235692.453125
-178.42,1769235692.46875
-170.16,1769235692.484375
-149.39,1769235692.5
-125.6,1769235692.515625
-109.87,1769235692.53125
-110.54,1769235692.546875
-130.46,1769235692.5625
-167.27,1769235692.578125
-216.35,1769235692.59375
-273.84,1769235692.609375
-337.68,1769235692.625
-405.91,1769235692.640625
-473.96,1769235692.65625
-533.44,1769235692.671875
-573.96,1769235692.6875
-587.28,1769235692.703125
-571.38,1769235692.71875
-531.87,1769235692.734375
-479.81,1769235692.75
-427.41,1769235692.765625
-383.84,1769235692.78125
-353.08,1769235692.796875
-334.02,1769235692.8125
-322.65,1769235692.828125
-314.13,1769235692.84375
-304.22,1769235692.859375
-289.96,1769235692.875
-269.72,1769235692.890625
-243.1,1769235692.90625
-210.87,1769235692.921875
-174.57,1769235692.9375
-135.94,1769235692.953125
-96.31,1769235692.96875
-56.41,1769235692.984375
-16.22,1769235693.0
24.72,1769235693.015625
66.91,1769235693.03125
110.4,1769235693.046875
154.23,1769235693.0625
196.18,1769235693.078125
232.93,1769235693.09375
260.83,1769235693.109375
277.12,1769235693.125
281.02,1769235693.140625
273.97,1769235693.15625
259.17,1769235693.171875
240.24,1769235693.1875
220.05,1769235693.203125
200.22,1769235693.21875
181.24,1769235693.234375
163.09,1769235693.25
145.81,1769235693.265625
129.55,1769235693.28125
114.3,1769235693.296875
99.48,1769235693.3125
83.82,1769235693.328125
65.62,1769235693.34375
43.34,1769235693.359375
16.17,1769235693.375
-15.38,1769235693.390625
-49.08,1769235693.40625
-81.09,1769235693.421875
-106.56,1769235693.4375
-120.78,1769235693.453125
-120.45,1769235693.46875
-104.75,1769235693.484375
-75.64,1769235693.5
-37.32,1769235693.515625
5.02,1769235693.53125
46.62,1769235693.546875
84.06,1769235693.5625
115.5,1769235693.578125
140.24,1769235693.59375
157.99,1769235693.609375
168.45,1769235693.625
171.35,1769235693.640625
166.88,1769235693.65625
156.13,1769235693.671875
141.19,1769235693.6875
124.72,1769235693.703125
109.09,1769235693.71875
95.68,1769235693.734375
84.48,1769235693.75
74.5,1769235693.765625
64.41,1769235693.78125
53.5,1769235693.796875
42.04,1769235693.8125
31.16,1769235693.828125
22.18,1769235693.84375
15.74,1769235693.859375
11.26,1769235693.875
6.97,1769235693.890625
0.5,1769235693.90625
-10.26,1769235693.921875
-26.35,1769235693.9375
-47.29,1769235693.953125
-70.99,1769235693.96875
-94.02,1769235693.984375
-112.1,1769235694.0
-120.85,1769235694.015625
-116.77,1769235694.03125
-98.31,1769235694.046875
-66.52,1769235694.0625
-25.08,1769235694.078125
20.68,1769235694.09375
65.35,1769235694.109375
104.88,1769235694.125
137.35,1769235694.140625
162.67,1769235694.15625
181.57,1769235694.171875
194.62,1769235694.1875
201.75,1769235694.203125
202.56,1769235694.21875
197.18,1769235694.234375
186.87,1769235694.25
174.21,1769235694.265625
162.58,1769235694.28125
155.24,1769235694.296875
154.35,1769235694.3125
160.25,1769235694.328125
171.25,1769235694.34375
184.01,1769235694.359375
194.44,1769235694.375
198.78,1769235694.390625
194.69,1769235694.40625
181.68,1769235694.421875
161.04,1769235694.4375
135.1,1769235694.453125
106.2,1769235694.46875
76.14,1769235694.484375
45.83,1769235694.5
15.51,1769235694.515625
-14.96,1769235694.53125
-46.13,1769235694.546875
-79.32,1769235694.5625
-116.89,1769235694.578125
-161.77,1769235694.59375
-215.89,1769235694.609375
-278.21,1769235694.625
-343.4,1769235694.640625
-402.33,1769235694.65625
-444.64,1769235694.671875
-462.36,1769235694.6875
-452.75,1769235694.703125
-419.01,1769235694.71875
-368.77,1769235694.734375
-311.03,1769235694.75
-253.67,1769235694.765625
-202.04,1769235694.78125
-159.1,1769235694.796875
-126.06,1769235694.8125
-102.84,1769235694.828125
-87.99,1769235694.84375
-78.64,1769235694.859375
-70.91,1769235694.875
-61.12,1769235694.890625
-47.22,1769235694.90625
-29.55,1769235694.921875
-10.5,1769235694.9375
6.7,1769235694.953125
19.3,1769235694.96875
26.03,1769235694.984375
27.16,1769235695.0
23.83,1769235695.015625
17.27,1769235695.03125
8.12,1769235695.046875
-3.75,1769235695.0625
-18.85,1769235695.078125
-37.32,1769235695.09375
-58.12,1769235695.109375
-78.57,1769235695.125
-94.58,1769235695.140625
-101.65,1769235695.15625
-96.17,1769235695.171875
-76.73,1769235695.1875
-44.75,1769235695.203125
-4.05,1769235695.21875
40.31,1769235695.234375
83.58,1769235695.25
122.47,1769235695.265625
155.52,1769235695.28125
182.62,1769235695.296875
204.1,1769235695.3125
219.97,1769235695.328125
229.62,1769235695.34375
232.05,1769235695.359375
226.55,1769235695.375
213.25,1769235695.390625
193.4,1769235695.40625
169.2,1769235695.421875
143.22,1769235695.4375
117.73,1769235695.453125
94.19,1769235695.46875
73.14,1769235695.484375
54.53,1769235695.5
38.1,1769235695.515625
23.83,1769235695.53125
11.94,1769235695.546875
2.53,1769235695.5625
-4.74,1769235695.578125
-11.05,1769235695.59375
-18.23,1769235695.609375
-28.35,1769235695.625
-43.11,1769235695.640625
-63.3,1769235695.65625
-88.38,1769235695.671875
-116.34,1769235695.6875
-143.68,1769235695.703125
-165.83,1769235695.71875
-177.91,1769235695.734375
-176.02,1769235695.75
-158.56,1769235695.765625
-126.92,1769235695.78125
-85.3,1769235695.796875
-39.37,1769235695.8125
5.45,1769235695.828125
45.53,1769235695.84375
79.44,1769235695.859375
107.24,1769235695.875
129.35,1769235695.890625
145.58,1769235695.90625
155.02,1769235695.921875
156.79,1769235695.9375
150.98,1769235695.953125
139.24,1769235695.96875
124.42,1769235695.984375
109.59,1769235696.0
96.97,1769235696.015625
87.24,1769235696.03125
79.58,1769235696.046875
72.42,1769235696.0625
64.44,1769235696.078125
55.13,1769235696.09375
45.03,1769235696.109375
35.19,1769235696.125
26.53,1769235696.140625
19.16,1769235696.15625
12.16,1769235696.171875
3.96,1769235696.1875
-7.18,1769235696.203125
-22.5,1769235696.21875
-42.3,1769235696.234375
-65.75,1769235696.25
-90.86,1769235696.265625
-114.5,1769235696.28125
-132.62,1769235696.296875
-140.95,1769235696.3125
-135.93,1769235696.328125
-115.91,1769235696.34375
-81.87,1769235696.359375
-37.52,1769235696.375
11.66,1769235696.390625
59.9,1769235696.40625
102.64,1769235696.421875
137.29,1769235696.4375
163.2,1769235696.453125
181.03,1769235696.46875
191.94,1769235696.484375
197.18,1769235696.5
198.0,1769235696.515625
195.73,1769235696.53125
191.88,1769235696.546875
187.99,1769235696.5625
185.34,1769235696.578125
184.74,1769235696.59375
186.33,1769235696.609375
189.55,1769235696.625
193.09,1769235696.640625
195.25,1769235696.65625
194.09,1769235696.671875
188.01,1769235696.6875
176.05,1769235696.703125
158.18,1769235696.71875
135.09,1769235696.734375
107.95,1769235696.75
78.16,1769235696.765625
47.36,1769235696.78125
17.49,1769235696.796875
-9.58,1769235696.8125
-32.6,1769235696.828125
-51.93,1769235696.84375
-70.21,1769235696.859375
-92.21,1769235696.875
-123.5,1769235696.890625
-167.94,1769235696.90625
-225.14,1769235696.921875
-289.25,1769235696.9375
-349.88,1769235696.953125
-395.06,1769235696.96875
-415.13,1769235696.984375
-405.82,1769235697.0
-369.43,1769235697.015625
-313.65,1769235697.03125
-248.83,1769235697.046875
-184.99,1769235697.0625
-129.64,1769235697.078125
-86.99,1769235697.09375
-58.2,1769235697.109375
-42.24,1769235697.125
-36.73,1769235697.140625
-38.27,1769235697.15625
-42.97,1769235697.171875
-46.96,1769235697.1875
-47.12,1769235697.203125
-41.9,1769235697.21875
-31.61,1769235697.234375
-18.23,1769235697.25
-4.79,1769235697.265625
5.73,1769235697.28125
11.34,1769235697.296875
11.39,1769235697.3125
6.33,1769235697.328125
-3.01,1769235697.34375
-16.29,1769235697.359375
-33.88,1769235697.375
-56.46,1769235697.390625
-83.97,1769235697.40625
-114.53,1769235697.421875
-143.99,1769235697.4375
-166.63,1769235697.453125
-176.65,1769235697.46875
-169.99,1769235697.484375
-145.7,1769235697.5
-106.2,1769235697.515625
-56.57,1769235697.53125
-3.01,1769235697.546875
48.69,1769235697.5625
94.4,1769235697.578125
131.95,1769235697.59375
160.84,1769235697.609375
181.48,1769235697.625
194.52,1769235697.640625
200.4,1769235697.65625
199.47,1769235697.671875
192.25,1769235697.6875
179.91,1769235697.703125
164.34,1769235697.71875
147.86,1769235697.734375
132.49,1769235697.75
119.3,1769235697.765625
108.05,1769235697.78125
97.49,1769235697.796875
86.2,1769235697.8125
73.38,1769235697.828125
59.31,1769235697.84375
45.07,1769235697.859375
31.89,1769235697.875
20.25,1769235697.890625
9.51,1769235697.90625
-1.93,1769235697.921875
-15.98,1769235697.9375
-34.16,1769235697.953125
-57.01,1769235697.96875
-83.92,1769235697.984375
-113.04,1769235698.0
-141.37,1769235698.015625
-164.95,1769235698.03125
-179.36,1769235698.046875
-180.7,1769235698.0625
-166.82,1769235698.078125
-138.36,1769235698.09375
-98.88,1769235698.109375
-54.01,1769235698.125
-9.71,1769235698.140625
29.45,1769235698.15625
61.21,1769235698.171875
85.35,1769235698.1875
102.71,1769235698.203125
114.02,1769235698.21875
119.36,1769235698.234375
118.42,1769235698.25
111.34,1769235698.265625
99.26,1769235698.28125
84.32,1769235698.296875
68.93,1769235698.3125
54.9,1769235698.328125
42.81,1769235698.34375
32.01,1769235698.359375
21.32,1769235698.375
9.89,1769235698.390625
-2.21,1769235698.40625
-13.89,1769235698.421875
-23.65,1769235698.4375
-30.37,1769235698.453125
-33.98,1769235698.46875
-35.71,1769235698.484375
-37.72,1769235698.5
-42.44,1769235698.515625
-51.79,1769235698.53125
-66.62,1769235698.546875
-86.28,1769235698.5625
-108.53,1769235698.578125
-129.68,1769235698.59375
-145.19,1769235698.609375
-150.68,1769235698.625
-143.18,1769235698.640625
-122.22,1769235698.65625
-90.2,1769235698.671875
-51.75,1769235698.6875
-12.32,1769235698.703125
23.53,1769235698.71875
53.2,1769235698.734375
76.23,1769235698.75
93.42,1769235698.765625
105.73,1769235698.78125
113.43,1769235698.796875
116.1,1769235698.8125
113.25,1769235698.828125
105.15,1769235698.84375
93.16,1769235698.859375
79.54,1769235698.875
66.65,1769235698.890625
56.12,1769235698.90625
48.34,1769235698.921875
42.47,1769235698.9375
37.06,1769235698.953125
30.79,1769235698.96875
23.05,1769235698.984375
14.23,1769235699.0
5.29,1769235699.015625
-2.74,1769235699.03125
-9.48,1769235699.046875
-15.43,1769235699.0625
-21.78,1769235699.078125
-29.99,1769235699.09375
-41.12,1769235699.109375
-55.5,1769235699.125
-72.61,1769235699.140625
-90.94,1769235699.15625
-107.89,1769235699.171875
-119.8,1769235699.1875
-122.28,1769235699.203125
-111.21,1769235699.21875
-84.22,1769235699.234375
-41.82,1769235699.25
12.28,1769235699.265625
72.26,1769235699.28125
132.08,1769235699.296875
187.21,1769235699.3125
235.2,1769235699.328125
275.0,1769235699.34375
305.63,1769235699.359375
325.37,1769235699.375
332.06,1769235699.390625
324.4,1769235699.40625
303.3,1769235699.421875
272.22,1769235699.4375
236.23,1769235699.453125
200.01,1769235699.46875
166.17,1769235699.484375
134.54,1769235699.5
102.73,1769235699.515625
67.6,1769235699.53125
26.76,1769235699.546875
-20.93,1769235699.5625
-75.47,1769235699.578125
-136.35,1769235699.59375
-202.71,1769235699.609375
-272.71,1769235699.625
-342.79,1769235699.640625
-407.4,1769235699.65625
-460.01,1769235699.671875
-495.11,1769235699.6875
-510.28,1769235699.703125
-506.95,1769235699.71875
-489.46,1769235699.734375
-462.94,1769235699.75
-431.19,1769235699.765625
-395.94,1769235699.78125
-357.41,1769235699.796875
-315.83,1769235699.8125
-272.36,1769235699.828125
-228.92,1769235699.84375
-187.11,1769235699.859375
-147.02,1769235699.875
-106.91,1769235699.890625
-64.03,1769235699.90625
-16.12,1769235699.921875
37.15,1769235699.9375
93.49,1769235699.953125
148.15,1769235699.96875
195.28,1769235699.984375
229.76,1769235700.0
248.93,1769235700.015625
253.53,1769235700.03125
247.37,1769235700.046875
235.68,1769235700.0625
223.05,1769235700.078125
211.84,1769235700.09375
201.83,1769235700.109375
191.32,1769235700.125
178.75,1769235700.140625
163.94,1769235700.15625
148.19,1769235700.171875
133.35,1769235700.1875
120.51,1769235700.203125
109.05,1769235700.21875
96.89,1769235700.234375
81.28,1769235700.25
60.17,1769235700.265625
33.21,1769235700.28125
2.27,1769235700.296875
-28.75,1769235700.3125
-54.77,1769235700.328125
-70.73,1769235700.34375
-73.03,1769235700.359375
-60.65,1769235700.375
-35.52,1769235700.390625
-1.97,1769235700.40625
34.65,1769235700.421875
69.56,1769235700.4375
99.72,1769235700.453125
124.08,1769235700.46875
142.94,1769235700.484375
156.82,1769235700.5
165.67,1769235700.515625
168.71,1769235700.53125
165.08,1769235700.546875
154.66,1769235700.5625
138.6,1769235700.578125
119.2,1769235700.59375
99.12,1769235700.609375
80.45,1769235700.625
64.02,1769235700.640625
49.44,1769235700.65625
35.62,1769235700.671875
21.62,1769235700.6875
7.34,1769235700.703125
-6.44,1769235700.71875
-18.5,1769235700.734375
-27.95,1769235700.75
-34.83,1769235700.765625
-40.33,1769235700.78125
-46.37,1769235700.796875
-55.0,1769235700.8125
-67.68,1769235700.828125
-84.98,1769235700.84375
-106.37,1769235700.859375
-130.31,1769235700.875
-154.31,1769235700.890625
-175.05,1769235700.90625
-188.75,1769235700.921875
-191.87,1769235700.9375
-182.05,1769235700.953125
-158.98,1769235700.96875
-124.72,1769235700.984375
-83.29,1769235701.0
-39.56,1769235701.015625
1.9,1769235701.03125
37.71,1769235701.046875
65.89,1769235701.0625
85.51,1769235701.078125
96.3,1769235701.09375
98.45,1769235701.109375
92.67,1769235701.125
80.4,1769235701.140625
63.79,1769235701.15625
45.31,1769235701.171875
27.23,1769235701.1875
10.99,1769235701.203125
-2.97,1769235701.21875
-15.09,1769235701.234375
-26.22,1769235701.25
-37.14,1769235701.265625
-48.17,1769235701.28125
-59.2,1769235701.296875
-69.87,1769235701.3125
-79.94,1769235701.328125
-89.63,1769235701.34375
-99.75,1769235701.359375
-111.56,1769235701.375
-126.33,1769235701.390625
-144.7,1769235701.40625
-165.93,1769235701.421875
-187.59,1769235701.4375
-205.6,1769235701.453125
-215.12,1769235701.46875
-211.82,1769235701.484375
-193.17,1769235701.5
-159.35,1769235701.515625
-113.28,1769235701.53125
-59.84,1769235701.546875
-4.65,1769235701.5625
47.21,1769235701.578125
91.95,1769235701.59375
127.4,1769235701.609375
152.81,1769235701.625
168.62,1769235701.640625
176.09,1769235701.65625
177.16,1769235701.671875
174.06,1769235701.6875
169.03,1769235701.703125
163.86,1769235701.71875
159.65,1769235701.734375
156.82,1769235701.75
155.36,1769235701.765625
155.02,1769235701.78125
155.53,1769235701.796875
156.59,1769235701.8125
157.73,1769235701.828125
158.18,1769235701.84375
156.82,1769235701.859375
152.31,1769235701.875
143.24,1769235701.890625
128.35,1769235701.90625
106.8,1769235701.921875
78.58,1769235701.9375
45.2,1769235701.953125
10.09,1769235701.96875
-21.44,1769235701.984375
-43.18,1769235702.0
-49.83,1769235702.015625
-39.03,1769235702.03125
-12.36,1769235702.046875
25.16,1769235702.0625
66.77,1769235702.078125
106.25,1769235702.09375
139.09,1769235702.109375
162.56,1769235702.125
174.78,1769235702.140625
173.78,1769235702.15625
157.41,1769235702.171875
124.16,1769235702.1875
74.44,1769235702.203125
11.51,1769235702.21875
-58.43,1769235702.234375
-127.34,1769235702.25
-186.87,1769235702.265625
-230.29,1769235702.28125
-253.96,1769235702.296875
-258.14,1769235702.3125
-246.88,1769235702.328125
-226.7,1769235702.34375
-204.72,1769235702.359375
-186.45,1769235702.375
-174.57,1769235702.390625
-168.91,1769235702.40625
-167.65,1769235702.421875
-168.99,1769235702.4375
-172.19,1769235702.453125
-177.69,1769235702.46875
-186.15,1769235702.484375
-197.08,1769235702.5
-208.1,1769235702.515625
-215.15,1769235702.53125
-213.63,1769235702.546875
-199.95,1769235702.5625
-172.85,1769235702.578125
-133.67,1769235702.59375
-85.83,1769235702.609375
-33.75,1769235702.625
18.34,1769235702.640625
67.07,1769235702.65625
110.14,1769235702.671875
145.96,1769235702.6875
173.41,1769235702.703125
191.7,1769235702.71875
200.43,1769235702.734375
199.91,1769235702.75
191.39,1769235702.765625
176.96,1769235702.78125
159.31,1769235702.796875
141.06,1769235702.8125
124.11,1769235702.828125
109.17,1769235702.84375
95.76,1769235702.859375
82.71,1769235702.875
69.0,1769235702.890625
54.36,1769235702.90625
39.47,1769235702.921875
25.45,1769235702.9375
13.09,1769235702.953125
2.15,1769235702.96875
-8.82,1769235702.984375
-22.03,1769235703.0
-39.55,1769235703.015625
-62.31,1769235703.03125
-89.42,1769235703.046875
-117.88,1769235703.0625
-143.06,1769235703.078125
-159.76,1769235703.09375
-163.54,1769235703.109375
-152.13,1769235703.125
-126.22,1769235703.140625
-89.33,1769235703.15625
-46.87,1769235703.171875
-4.53,1769235703.1875
33.19,1769235703.203125
63.78,1769235703.21875
86.61,1769235703.234375
102.18,1769235703.25
111.25,1769235703.265625
114.32,1769235703.28125
111.74,1769235703.296875
104.19,1769235703.3125
92.93,1769235703.328125
79.76,1769235703.34375
66.4,1769235703.359375
53.94,1769235703.375
42.5,1769235703.390625
31.46,1769235703.40625
20.12,1769235703.421875
8.33,1769235703.4375
-3.25,1769235703.453125
-13.48,1769235703.46875
-21.52,1769235703.484375
-27.46,1769235703.5
-32.57,1769235703.515625
-38.97,1769235703.53125
-48.82,1769235703.546875
-63.49,1769235703.5625
-82.93,1769235703.578125
-105.41,1769235703.59375
-127.71,1769235703.609375
-145.66,1769235703.625
-155.06,1769235703.640625
-152.73,1769235703.65625
-137.46,1769235703.671875
-110.55,1769235703.6875
-75.48,1769235703.703125
-36.96,1769235703.71875
0.33,1769235703.734375
32.85,1769235703.75
58.61,1769235703.765625
76.93,1769235703.78125
87.81,1769235703.796875
91.52,1769235703.8125
88.46,1769235703.828125
79.45,1769235703.84375
65.98,1769235703.859375
50.1,1769235703.875
33.98,1769235703.890625
19.24,1769235703.90625
6.56,1769235703.921875
-4.35,1769235703.9375
-14.23,1769235703.953125
-23.71,1769235703.96875
-32.87,1769235703.984375
-41.28,1769235704.0
-48.34,1769235704.015625
-53.86,1769235704.03125
-58.36,1769235704.046875
-63.08,1769235704.0625
-69.66,1769235704.078125
-79.58,1769235704.09375
-93.56,1769235704.109375
-110.99,1769235704.125
-129.65,1769235704.140625
-145.78,1769235704.15625
-154.77,1769235704.171875
-152.3,1769235704.1875
-135.74,1769235704.203125
-105.12,1769235704.21875
-63.34,1769235704.234375
-15.22,1769235704.25
34.1,1769235704.265625
80.68,1769235704.28125
122.63,1769235704.296875
159.86,1769235704.3125
193.09,1769235704.328125
222.77,1769235704.34375
248.7,1769235704.359375
270.29,1769235704.375
287.35,1769235704.390625
300.5,1769235704.40625
310.94,1769235704.421875
319.53,1769235704.4375
325.96,1769235704.453125
328.48,1769235704.46875
324.78,1769235704.484375
313.32,1769235704.5
294.57,1769235704.515625
271.15,1769235704.53125
246.86,1769235704.546875
224.9,1769235704.5625
206.42,1769235704.578125
190.1,1769235704.59375
172.86,1769235704.609375
151.15,1769235704.625
122.11,1769235704.640625
84.18,1769235704.65625
37.58,1769235704.671875
-15.23,1769235704.6875
-69.09,1769235704.703125
-116.27,1769235704.71875
-147.93,1769235704.734375
-156.79,1769235704.75
-140.04,1769235704.765625
-100.83,1769235704.78125
-47.65,1769235704.796875
8.63,1769235704.8125
58.29,1769235704.828125
95.23,1769235704.84375
117.18,1769235704.859375
124.56,1769235704.875
119.07,1769235704.890625
103.09,1769235704.90625
80.02,1769235704.921875
54.44,1769235704.9375
31.22,1769235704.953125
13.85,1769235704.96875
2.57,1769235704.984375
-6.0,1769235705.0
-17.58,1769235705.015625
-37.89,1769235705.03125
-70.7,1769235705.046875
-117.03,1769235705.0625
-175.46,1769235705.078125
-242.64,1769235705.09375
-313.42,1769235705.109375
-380.7,1769235705.125
-436.18,1769235705.140625
-472.27,1769235705.15625
-484.9,1769235705.171875
-475.66,1769235705.1875
-451.91,1769235705.203125
-424.09,1769235705.21875
-401.57,1769235705.234375
-389.03,1769235705.25
-385.07,1769235705.265625
-383.66,1769235705.28125
-377.55,1769235705.296875
-361.58,1769235705.3125
-334.45,1769235705.328125
-298.23,1769235705.34375
-256.56,1769235705.359375
-212.53,1769235705.375
-167.54,1769235705.390625
-121.25,1769235705.40625
-72.48,1769235705.421875
-20.39,1769235705.4375
34.4,1769235705.453125
89.43,1769235705.46875
140.85,1769235705.484375
184.36,1769235705.5
216.52,1769235705.515625
235.75,1769235705.53125
242.75,1769235705.546875
240.05,1769235705.5625
230.91,1769235705.578125
218.27,1769235705.59375
203.97,1769235705.609375
188.86,1769235705.625
173.33,1769235705.640625
157.94,1769235705.65625
143.65,1769235705.671875
131.54,1769235705.6875
122.08,1769235705.703125
114.7,1769235705.71875
107.74,1769235705.734375
98.98,1769235705.75
86.56,1769235705.765625
69.49,1769235705.78125
47.96,1769235705.796875
23.07,1769235705.8125
-3.61,1769235705.828125
-30.4,1769235705.84375
-55.58,1769235705.859375
-77.22,1769235705.875
-93.01,1769235705.890625
-100.43,1769235705.90625
-97.44,1769235705.921875
-83.31,1769235705.9375
-59.23,1769235705.953125
-28.3,1769235705.96875
5.29,1769235705.984375
37.43,1769235706.0
65.17,1769235706.015625
87.07,1769235706.03125
102.95,1769235706.046875
113.11,1769235706.0625
117.82,1769235706.078125
117.19,1769235706.09375
111.51,1769235706.109375
101.65,1769235706.125
89.22,1769235706.140625
76.14,1769235706.15625
63.98,1769235706.171875
53.43,1769235706.1875
44.12,1769235706.203125
35.15,1769235706.21875
25.74,1769235706.234375
15.88,1769235706.25
6.38,1769235706.265625
-1.59,1769235706.28125
-7.18,1769235706.296875
-10.56,1769235706.3125
-12.95,1769235706.328125
-16.37,1769235706.34375
-22.87,1769235706.359375
-33.91,1769235706.375
-49.96,1769235706.390625
-70.18,1769235706.40625
-92.48,1769235706.421875
-113.62,1769235706.4375
-129.69,1769235706.453125
-136.82,1769235706.46875
-132.27,1769235706.484375
-115.3,1769235706.5
-87.64,1769235706.515625
-53.07,1769235706.53125
-16.3,1769235706.546875
18.4,1769235706.5625
48.19,1769235706.578125
71.9,1769235706.59375
89.5,1769235706.609375
101.23,1769235706.625
107.03,1769235706.640625
106.56,1769235706.65625
99.73,1769235706.671875
87.33,1769235706.6875
71.33,1769235706.703125
54.43,1769235706.71875
39.15,1769235706.734375
26.93,1769235706.75
17.7,1769235706.765625
10.09,1769235706.78125
2.39,1769235706.796875
-6.48,1769235706.8125
-16.41,1769235706.828125
-26.14,1769235706.84375
-34.12,1769235706.859375
-39.47,1769235706.875
-42.58,1769235706.890625
-45.17,1769235706.90625
-49.63,1769235706.921875
-58.04,1769235706.9375
-71.32,1769235706.953125
-88.74,1769235706.96875
-107.79,1769235706.984375
-124.59,1769235707.0
-134.63,1769235707.015625
-133.81,1769235707.03125
-119.57,1769235707.046875
-91.76,1769235707.0625
-52.81,1769235707.078125
-7.14,1769235707.09375
40.17,1769235707.109375
84.88,1769235707.125
124.67,1769235707.140625
159.26,1769235707.15625
189.61,1769235707.171875
216.75,1769235707.1875
240.71,1769235707.203125
260.31,1769235707.21875
273.67,1769235707.234375
279.35,1769235707.25
277.25,1769235707.265625
269.01,1769235707.28125
257.55,1769235707.296875
245.94,1769235707.3125
236.16,1769235707.328125
228.36,1769235707.34375
221.06,1769235707.359375
212.14,1769235707.375
200.1,1769235707.390625
184.93,1769235707.40625
167.89,1769235707.421875
150.64,1769235707.4375
133.94,1769235707.453125
116.86,1769235707.46875
97.02,1769235707.484375
71.57,1769235707.5
38.33,1769235707.515625
-3.54,1769235707.53125
-53.45,1769235707.546875
-109.37,1769235707.5625
-167.61,1769235707.578125
-222.56,1769235707.59375
-267.04,1769235707.609375
-293.66,1769235707.625
-297.24,1769235707.640625
-277.03,1769235707.65625
-237.42,1769235707.671875
-186.49,1769235707.6875
-132.94,1769235707.703125
-82.99,1769235707.71875
-39.11,1769235707.734375
-0.99,1769235707.75
32.15,1769235707.765625
59.44,1769235707.78125
78.13,1769235707.796875
85.06,1769235707.8125
78.71,1769235707.828125
60.51,1769235707.84375
34.64,1769235707.859375
6.56,1769235707.875
-18.56,1769235707.890625
-37.06,1769235707.90625
-47.5,1769235707.921875
-50.9,1769235707.9375
-50.52,1769235707.953125
-51.22,1769235707.96875
-58.13,1769235707.984375
-74.93,1769235708.0
-102.34,1769235708.015625
-137.84,1769235708.03125
-176.72,1769235708.046875
-214.04,1769235708.0625
-246.52,1769235708.078125
-273.18,1769235708.09375
-294.74,1769235708.109375
-312.04,1769235708.125
-324.77,1769235708.140625
-331.16,1769235708.15625
-328.75,1769235708.171875
-315.68,1769235708.1875
-291.56,1769235708.203125
-257.65,1769235708.21875
-216.24,1769235708.234375
-169.79,1769235708.25
-120.4,1769235708.265625
-69.76,1769235708.28125
-19.5,1769235708.296875
28.45,1769235708.3125
71.72,1769235708.328125
107.8,1769235708.34375
134.64,1769235708.359375
151.22,1769235708.375
157.8,1769235708.390625
155.92,1769235708.40625
147.98,1769235708.421875
136.72,1769235708.4375
124.68,1769235708.453125
113.77,1769235708.46875
104.91,1769235708.484375
97.99,1769235708.5
92.1,1769235708.515625
86.03,1769235708.53125
78.96,1769235708.546875
70.84,1769235708.5625
62.35,1769235708.578125
54.46,1769235708.59375
47.86,1769235708.609375
42.34,1769235708.625
36.77,1769235708.640625
29.42,1769235708.65625
18.52,1769235708.671875
2.87,1769235708.6875
-17.69,1769235708.703125
-41.99,1769235708.71875
-67.5,1769235708.734375
-90.52,1769235708.75
-106.78,1769235708.765625
-112.37,1769235708.78125
-104.94,1769235708.796875
-84.6,1769235708.8125
-54.04,1769235708.828125
-17.81,1769235708.84375
19.05,1769235708.859375
52.52,1769235708.875
80.27,1769235708.890625
101.64,1769235708.90625
116.87,1769235708.921875
126.27,1769235708.9375
129.81,1769235708.953125
127.34,1769235708.96875
119.13,1769235708.984375
106.29,1769235709.0
90.79,1769235709.015625
74.93,1769235709.03125
60.65,1769235709.046875
48.91,1769235709.0625
39.55,1769235709.078125
31.58,1769235709.09375
23.8,1769235709.109375
15.45,1769235709.125
6.58,1769235709.140625
-1.98,1769235709.15625
-9.23,1769235709.171875
-14.6,1769235709.1875
-18.54,1769235709.203125
-22.53,1769235709.21875
-28.58,1769235709.234375
-38.58,1769235709.25
-53.47,1769235709.265625
-72.86,1769235709.28125
-94.75,1769235709.296875
-115.75,1769235709.3125
-131.62,1769235709.328125
-138.08,1769235709.34375
-131.98,1769235709.359375
-112.4,1769235709.375
-81.17,1769235709.390625
-42.55,1769235709.40625
-1.94,1769235709.421875
35.78,1769235709.4375
67.64,1769235709.453125
92.94,1769235709.46875
112.63,1769235709.484375
127.95,1769235709.5
139.37,1769235709.515625
146.28,1769235709.53125
147.56,1769235709.546875
142.68,1769235709.5625
132.44,1769235709.578125
118.98,1769235709.59375
104.98,1769235709.609375
92.55,1769235709.625
82.4,1769235709.640625
73.78,1769235709.65625
65.17,1769235709.671875
55.25,1769235709.6875
43.74,1769235709.703125
31.48,1769235709.71875
19.86,1769235709.734375
9.93,1769235709.75
1.75,1769235709.765625
-5.72,1769235709.78125
-14.12,1769235709.796875
-24.92,1769235709.8125
-38.85,1769235709.828125
-55.72,1769235709.84375
-74.44,1769235709.859375
-93.25,1769235709.875
-109.8,1769235709.890625
-121.16,1769235709.90625
-124.27,1769235709.921875
-116.65,1769235709.9375
-97.3,1769235709.953125
-67.41,1769235709.96875
-30.26,1769235709.984375
9.86,1769235710.0
48.97,1769235710.015625
84.63,1769235710.03125
116.17,1769235710.046875
143.99,1769235710.0625
168.41,1769235710.078125
188.84,1769235710.09375
203.71,1769235710.109375
211.49,1769235710.125
211.78,1769235710.140625
206.07,1769235710.15625
197.47,1769235710.171875
189.54,1769235710.1875
184.78,1769235710.203125
183.57,1769235710.21875
183.98,1769235710.234375
182.78,1769235710.25
177.08,1769235710.265625
165.84,1769235710.28125
150.48,1769235710.296875
134.32,1769235710.3125
120.93,1769235710.328125
112.16,1769235710.34375
106.95,1769235710.359375
101.46,1769235710.375
90.38,1769235710.390625
68.99,1769235710.40625
34.97,1769235710.421875
-10.79,1769235710.4375
-64.3,1769235710.453125
-119.11,1769235710.46875
-167.31,1769235710.484375
-200.93,1769235710.5
-213.86,1769235710.515625
-204.3,1769235710.53125
-176.5,1769235710.546875
-140.73,1769235710.5625
-110.63,1769235710.578125
-98.45,1769235710.59375
-110.2,1769235710.609375
-143.21,1769235710.625
-187.53,1769235710.640625
-230.44,1769235710.65625
-261.86,1769235710.671875
-277.63,1769235710.6875
-279.45,1769235710.703125
-272.02,1769235710.71875
-259.57,1769235710.734375
-244.03,1769235710.75
-225.43,1769235710.765625
-203.88,1769235710.78125
-181.18,1769235710.796875
-160.78,1769235710.8125
-146.17,1769235710.828125
-138.89,1769235710.84375
-137.3,1769235710.859375
-137.16,1769235710.875
-133.65,1769235710.890625
-123.82,1769235710.90625
-107.96,1769235710.921875
-89.54,1769235710.9375
-73.69,1769235710.953125
-65.12,1769235710.96875
-66.34,1769235710.984375
-76.83,1769235711.0
-93.15,1769235711.015625
-109.99,1769235711.03125
-121.51,1769235711.046875
-122.8,1769235711.0625
-111.11,1769235711.078125
-86.57,1769235711.09375
-52.0,1769235711.109375
-12.01,1769235711.125
28.55,1769235711.140625
66.03,1769235711.15625
98.69,1769235711.171875
126.56,1769235711.1875
150.37,1769235711.203125
170.52,1769235711.21875
186.45,1769235711.234375
196.86,1769235711.25
200.57,1769235711.265625
197.41,1769235711.28125
188.53,1769235711.296875
176.07,1769235711.3125
162.31,1769235711.328125
148.92,1769235711.34375
136.43,1769235711.359375
124.39,1769235711.375
111.9,1769235711.390625
98.24,1769235711.40625
83.33,1769235711.421875
67.9,1769235711.4375
53.06,1769235711.453125
39.9,1769235711.46875
28.82,1769235711.484375
19.44,1769235711.5
10.56,1769235711.515625
0.68,1769235711.53125
-11.6,1769235711.546875
-27.14,1769235711.5625
-46.09,1769235711.578125
-67.65,1769235711.59375
-89.98,1769235711.609375
-110.21,1769235711.625
-124.75,1769235711.640625
-130.05,1769235711.65625
-123.7,1769235711.671875
-105.35,1769235711.6875
-76.99,1769235711.703125
-42.52,1769235711.71875
-6.48,1769235711.734375
27.21,1769235711.75
56.23,1769235711.765625
79.77,1769235711.78125
98.03,1769235711.796875
111.31,1769235711.8125
119.57,1769235711.828125
122.46,1769235711.84375
119.84,1769235711.859375
112.3,1769235711.875
101.29,1769235711.890625
88.77,1769235711.90625
76.6,1769235711.921875
65.88,1769235711.9375
56.73,1769235711.953125
48.47,1769235711.96875
40.18,1769235711.984375
31.34,1769235712.0
22.17,1769235712.015625
13.46,1769235712.03125
6.09,1769235712.046875
0.41,1769235712.0625
-4.12,1769235712.078125
-8.89,1769235712.09375
-15.62,1769235712.109375
-25.71,1769235712.125
-39.8,1769235712.140625
-57.55,1769235712.15625
-77.64,1769235712.171875
-97.89,1769235712.1875
-115.36,1769235712.203125
-126.69,1769235712.21875
-128.76,1769235712.234375
-119.56,1769235712.25
-99.12,1769235712.265625
-69.73,1769235712.28125
-35.46,1769235712.296875
-0.83,1769235712.3125
30.49,1769235712.328125
56.57,1769235712.34375
77.08,1769235712.359375
92.47,1769235712.375
103.03,1769235712.390625
108.56,1769235712.40625
108.7,1769235712.421875
103.73,1769235712.4375
95.01,1769235712.453125
84.9,1769235712.46875
75.85,1769235712.484375
69.42,1769235712.5
65.78,1769235712.515625
63.87,1769235712.53125
62.29,1769235712.546875
60.17,1769235712.5625
57.75,1769235712.578125
56.14,1769235712.59375
56.54,1769235712.609375
59.46,1769235712.625
64.26,1769235712.640625
69.23,1769235712.65625
72.3,1769235712.671875
71.72,1769235712.6875
66.64,1769235712.703125
57.41,1769235712.71875
45.52,1769235712.734375
33.37,1769235712.75
23.86,1769235712.765625
19.68,1769235712.78125
22.7,1769235712.796875
33.35,1769235712.8125
50.45,1769235712.828125
71.48,1769235712.84375
93.26,1769235712.859375
112.72,1769235712.875
127.47,1769235712.890625
135.98,1769235712.90625
137.29,1769235712.921875
130.86,1769235712.9375
116.43,1769235712.953125
94.28,1769235712.96875
65.53,1769235712.984375
32.28,1769235713.0
-2.67,1769235713.015625
-36.48,1769235713.03125
-66.83,1769235713.046875
-92.39,1769235713.0625
-112.67,1769235713.078125
-127.62,1769235713.09375
-137.12,1769235713.109375
-140.64,1769235713.125
-137.41,1769235713.140625
-126.81,1769235713.15625
-109.01,1769235713.171875
-85.46,1769235713.1875
-59.15,1769235713.203125
-34.53,1769235713.21875
-16.96,1769235713.234375
-11.6,1769235713.25
-21.92,1769235713.265625
-48.28,1769235713.28125
-87.14,1769235713.296875
-131.22,1769235713.3125
-171.0,1769235713.328125
-197.18,1769235713.34375
-203.57,1769235713.359375
-189.1,1769235713.375
-158.36,1769235713.390625
-120.03,1769235713.40625
-83.78,1769235713.421875
-56.9,1769235713.4375
-42.19,1769235713.453125
-37.77,1769235713.46875
-38.96,1769235713.484375
-40.95,1769235713.5
-40.87,1769235713.515625
-38.37,1769235713.53125
-34.72,1769235713.546875
-31.26,1769235713.5625
-28.48,1769235713.578125
-26.05,1769235713.59375
-23.84,1769235713.609375
-22.78,1769235713.625
-24.79,1769235713.640625
-31.77,1769235713.65625
-44.1,1769235713.671875
-59.86,1769235713.6875
-75.11,1769235713.703125
-85.47,1769235713.71875
-87.96,1769235713.734375
-82.48,1769235713.75
-72.03,1769235713.765625
-61.51,1769235713.78125
-55.93,1769235713.796875
-58.53,1769235713.8125
-69.77,1769235713.828125
-87.2,1769235713.84375
-106.29,1769235713.859375
-121.59,1769235713.875
-128.1,1769235713.890625
-122.38,1769235713.90625
-103.33,1769235713.921875
-72.47,1769235713.9375
-33.48,1769235713.953125
8.74,1769235713.96875
49.49,1769235713.984375
85.31,1769235714.0
114.58,1769235714.015625
137.12,1769235714.03125
153.48,1769235714.046875
164.17,1769235714.0625
169.26,1769235714.078125
168.73,1769235714.09375
162.92,1769235714.109375
152.87,1769235714.125
140.23,1769235714.140625
126.7,1769235714.15625
113.42,1769235714.171875
100.64,1769235714.1875
87.94,1769235714.203125
74.82,1769235714.21875
61.34,1769235714.234375
48.29,1769235714.25
36.93,1769235714.265625
28.26,1769235714.28125
22.38,1769235714.296875
18.28,1769235714.3125
14.15,1769235714.328125
8.0,1769235714.34375
-1.66,1769235714.359375
-15.43,1769235714.375
-32.94,1769235714.390625
-52.83,1769235714.40625
-72.75,1769235714.421875
-89.54,1769235714.4375
-99.64,1769235714.453125
-99.97,1769235714.46875
-88.99,1769235714.484375
-67.52,1769235714.5
-38.66,1769235714.515625
-6.79,1769235714.53125
23.86,1769235714.546875
50.49,1769235714.5625
72.07,1769235714.578125
88.85,1769235714.59375
101.29,1769235714.609375
109.27,1769235714.625
112.11,1769235714.640625
109.14,1769235714.65625
100.62,1769235714.671875
88.08,1769235714.6875
73.96,1769235714.703125
60.7,1769235714.71875
49.79,1769235714.734375
41.41,1769235714.75
34.64,1769235714.765625
28.29,1769235714.78125
21.72,1769235714.796875
15.19,1769235714.8125
9.62,1769235714.828125
5.94,1769235714.84375
4.33,1769235714.859375
3.79,1769235714.875
2.26,1769235714.890625
-2.83,1769235714.90625
-13.74,1769235714.921875
-31.55,1769235714.9375
-55.48,1769235714.953125
-82.63,1769235714.96875
-108.26,1769235714.984375
-126.85,1769235715.0
-133.65,1769235715.015625
-126.11,1769235715.03125
-104.93,1769235715.046875
-73.81,1769235715.0625
-38.25,1769235715.078125
-3.65,1769235715.09375
26.19,1769235715.109375
49.73,1769235715.125
67.21,1769235715.140625
79.46,1769235715.15625
86.91,1769235715.171875
89.21,1769235715.1875
85.71,1769235715.203125
76.37,1769235715.21875
62.42,1769235715.234375
46.4,1769235715.25
31.44,1769235715.265625
20.33,1769235715.28125
14.64,1769235715.296875
14.49,1769235715.3125
18.88,1769235715.328125
26.33,1769235715.34375
35.41,1769235715.359375
45.0,1769235715.375
54.09,1769235715.390625
61.48,1769235715.40625
65.64,1769235715.421875
64.89,1769235715.4375
57.82,1769235715.453125
43.64,1769235715.46875
22.45,1769235715.484375
-4.73,1769235715.5
-35.87,1769235715.515625
-67.83,1769235715.53125
-96.27,1769235715.546875
-116.16,1769235715.5625
-122.86,1769235715.578125
-113.66,1769235715.59375
-89.11,1769235715.609375
-53.24,1769235715.625
-12.54,1769235715.640625
26.0,1769235715.65625
56.96,1769235715.671875
77.66,1769235715.6875
88.17,1769235715.703125
90.22,1769235715.71875
85.9,1769235715.734375
76.84,1769235715.75
64.1,1769235715.765625
48.56,1769235715.78125
31.41,1769235715.796875
14.09,1769235715.8125
-2.04,1769235715.828125
-16.25,1769235715.84375
-28.67,1769235715.859375
-40.08,1769235715.875
-51.33,1769235715.890625
-62.67,1769235715.90625
-73.42,1769235715.921875
-82.24,1769235715.9375
-87.76,1769235715.953125
-89.39,1769235715.96875
-87.76,1769235715.984375
-84.62,1769235716.0
-82.32,1769235716.015625
-83.01,1769235716.03125
-87.99,1769235716.046875
-97.3,1769235716.0625
-109.5,1769235716.078125
-121.72,1769235716.09375
-130.08,1769235716.109375
-130.49,1769235716.125
-119.81,1769235716.140625
-97.05,1769235716.15625
-63.97,1769235716.171875
-24.74,1769235716.1875
15.33,1769235716.203125
51.52,1769235716.21875
81.05,1769235716.234375
103.4,1769235716.25
119.56,1769235716.265625
130.71,1769235716.28125
137.16,1769235716.296875
138.14,1769235716.3125
132.49,1769235716.328125
119.76,1769235716.34375
100.98,1769235716.359375
78.62,1769235716.375
55.8,1769235716.390625
35.17,1769235716.40625
18.1,1769235716.421875
4.57,1769235716.4375
-6.36,1769235716.453125
-15.77,1769235716.46875
-24.2,1769235716.484375
-31.52,1769235716.5
-37.29,1769235716.515625
-41.3,1769235716.53125
-44.16,1769235716.546875
-47.33,1769235716.5625
-52.84,1769235716.578125
-62.64,1769235716.59375
-77.9,1769235716.609375
-98.47,1769235716.625
-122.52,1769235716.640625
-146.63,1769235716.65625
-166.11,1769235716.671875
-176.08,1769235716.6875
-172.68,1769235716.703125
-154.41,1769235716.71875
-122.82,1769235716.734375
-82.24,1769235716.75
-38.51,1769235716.765625
2.81,1769235716.78125
38.0,1769235716.796875
65.74,1769235716.8125
86.67,1769235716.828125
102.11,1769235716.84375
112.97,1769235716.859375
119.28,1769235716.875
120.49,1769235716.890625
116.32,1769235716.90625
107.4,1769235716.921875
95.35,1769235716.9375
82.27,1769235716.953125
69.94,1769235716.96875
59.18,1769235716.984375
49.7,1769235717.0
40.52,1769235717.015625
30.72,1769235717.03125
20.01,1769235717.046875
8.97,1769235717.0625
-1.28,1769235717.078125
-9.73,1769235717.09375
-16.18,1769235717.109375
-21.54,1769235717.125
-27.71,1769235717.140625
-36.87,1769235717.15625
-50.79,1769235717.171875
-70.02,1769235717.1875
-93.43,1769235717.203125
-118.2,1769235717.21875
-140.11,1769235717.234375
-154.46,1769235717.25
-157.17,1769235717.265625
-146.1,1769235717.28125
-121.75,1769235717.296875
-87.31,1769235717.3125
-47.73,1769235717.328125
-8.2,1769235717.34375
27.26,1769235717.359375
56.63,1769235717.375
79.67,1769235717.390625
97.07,1769235717.40625
109.39,1769235717.421875
116.52,1769235717.4375
117.88,1769235717.453125
113.07,1769235717.46875
102.62,1769235717.484375
88.22,1769235717.5
72.33,1769235717.515625
57.29,1769235717.53125
44.54,1769235717.546875
34.17,1769235717.5625
25.21,1769235717.578125
16.27,1769235717.59375
6.46,1769235717.609375
-4.14,1769235717.625
-14.57,1769235717.640625
-23.62,1769235717.65625
-30.62,1769235717.671875
-35.91,1769235717.6875
-40.85,1769235717.703125
-47.32,1769235717.71875
-56.96,1769235717.734375
-70.67,1769235717.75
-88.35,1769235717.765625
-108.85,1769235717.78125
-129.98,1769235717.796875
-148.57,1769235717.8125
-160.83,1769235717.828125
-163.05,1769235717.84375
-152.74,1769235717.859375
-129.57,1769235717.875
-95.78,1769235717.890625
-55.53,1769235717.90625
-13.65,1769235717.921875
25.96,1769235717.9375
61.09,1769235717.953125
91.18,1769235717.96875
116.43,1769235717.984375
136.81,1769235718.0
151.69,1769235718.015625
160.11,1769235718.03125
161.58,1769235718.046875
156.84,1769235718.0625
147.95,1769235718.078125
137.81,1769235718.09375
129.2,1769235718.109375
123.9,1769235718.125
122.2,1769235718.140625
123.0,1769235718.15625
124.4,1769235718.171875
124.52,1769235718.1875
122.34,1769235718.203125
117.97,1769235718.21875
112.58,1769235718.234375
107.75,1769235718.25
104.62,1769235718.265625
103.2,1769235718.28125
102.12,1769235718.296875
98.93,1769235718.3125
90.93,1769235718.328125
76.07,1769235718.34375
53.83,1769235718.359375
25.58,1769235718.375
-5.64,1769235718.390625
-35.84,1769235718.40625
-60.95,1769235718.421875
-77.6,1769235718.4375
-83.56,1769235718.453125
-78.25,1769235718.46875
-63.05,1769235718.484375
-41.63,1769235718.5
-19.56,1769235718.515625
-3.08,1769235718.53125
2.75,1769235718.546875
-4.11,1769235718.5625
-22.01,1769235718.578125
-46.32,1769235718.59375
-71.51,1769235718.609375
-93.2,1769235718.625
-109.34,1769235718.640625
-119.97,1769235718.65625
-125.97,1769235718.671875
-127.86,1769235718.6875
-125.55,1769235718.703125
-118.95,1769235718.71875
-108.9,1769235718.734375
-97.45,1769235718.75
-87.18,1769235718.765625
-79.97,1769235718.78125
-76.13,1769235718.796875
-74.39,1769235718.8125
-72.8,1769235718.828125
-69.97,1769235718.84375
-66.02,1769235718.859375
-62.57,1769235718.875
-62.15,1769235718.890625
-67.0,1769235718.90625
-78.08,1769235718.921875
-94.35,1769235718.9375
-112.7,1769235718.953125
-128.53,1769235718.96875
-136.87,1769235718.984375
-133.75,1769235719.0
-117.46,1769235719.015625
-89.18,1769235719.03125
-52.64,1769235719.046875
-12.91,1769235719.0625
25.24,1769235719.078125
58.69,1769235719.09375
86.38,1769235719.109375
108.73,1769235719.125
126.45,1769235719.140625
139.52,1769235719.15625
147.01,1769235719.171875
147.76,1769235719.1875
141.38,1769235719.203125
129.02,1769235719.21875
113.28,1769235719.234375
97.25,1769235719.25
83.38,1769235719.265625
72.61,1769235719.28125
64.27,1769235719.296875
56.81,1769235719.3125
48.8,1769235719.328125
39.71,1769235719.34375
30.07,1769235719.359375
20.99,1769235719.375
13.4,1769235719.390625
7.37,1769235719.40625
2.01,1769235719.421875
-4.31,1769235719.4375
-13.3,1769235719.453125
-26.25,1769235719.46875
-43.62,1769235719.484375
-64.8,1769235719.5
-87.95,1769235719.515625
-110.02,1769235719.53125
-127.06,1769235719.546875
-135.02,1769235719.5625
-130.9,1769235719.578125
-113.89,1769235719.59375
-85.89,1769235719.609375
-51.0,1769235719.625
-14.28,1769235719.640625
19.92,1769235719.65625
49.04,1769235719.671875
72.45,1769235719.6875
90.73,1769235719.703125
104.57,1769235719.71875
114.06,1769235719.734375
118.6,1769235719.75
117.61,1769235719.765625
111.19,1769235719.78125
100.58,1769235719.796875
87.83,1769235719.8125
75.07,1769235719.828125
63.71,1769235719.84375
54.01,1769235719.859375
45.26,1769235719.875
36.31,1769235719.890625
26.46,1769235719.90625
15.83,1769235719.921875
5.32,1769235719.9375
-3.81,1769235719.953125
-10.73,1769235719.96875
-15.48,1769235719.984375
-19.14,1769235720.0
-23.53,1769235720.015625
-30.64,1769235720.03125
-41.99,1769235720.046875
-58.11,1769235720.0625
-78.13,1769235720.078125
-99.78,1769235720.09375
-119.51,1769235720.109375
-133.2,1769235720.125
-137.12,1769235720.140625
-129.09,1769235720.15625
-109.23,1769235720.171875
-80.09,1769235720.1875
-45.89,1769235720.203125
-11.17,1769235720.21875
20.56,1769235720.234375
47.55,1769235720.25
69.59,1769235720.265625
87.24,1769235720.28125
100.83,1769235720.296875
109.99,1769235720.3125
114.0,1769235720.328125
112.51,1769235720.34375
106.26,1769235720.359375
97.28,1769235720.375
88.28,1769235720.390625
81.63,1769235720.40625
78.54,1769235720.421875
78.7,1769235720.4375
80.73,1769235720.453125
82.91,1769235720.46875
84.04,1769235720.484375
83.72,1769235720.5
82.2,1769235720.515625
79.75,1769235720.53125
76.28,1769235720.546875
71.04,1769235720.5625
62.91,1769235720.578125
50.84,1769235720.59375
34.27,1769235720.609375
13.27,1769235720.625
-11.32,1769235720.640625
-37.97,1769235720.65625
-64.31,1769235720.671875
-87.23,1769235720.6875
-103.25,1769235720.703125
-109.33,1769235720.71875
-103.85,1769235720.734375
-87.38,1769235720.75
-62.62,1769235720.765625
-33.5,1769235720.78125
-3.87,1769235720.796875
23.63,1769235720.8125
47.89,1769235720.828125
68.82,1769235720.84375
86.33,1769235720.859375
99.62,1769235720.875
107.28,1769235720.890625
108.01,1769235720.90625
101.64,1769235720.921875
89.63,1769235720.9375
74.77,1769235720.953125
60.27,1769235720.96875
48.59,1769235720.984375
40.72,1769235721.0
36.11,1769235721.015625
33.22,1769235721.03125
30.48,1769235721.046875
26.94,1769235721.0625
22.52,1769235721.078125
17.85,1769235721.09375
13.64,1769235721.109375
10.1,1769235721.125
6.6,1769235721.140625
1.74,1769235721.15625
-6.29,1769235721.171875
-19.09,1769235721.1875
-37.42,1769235721.203125
-60.75,1769235721.21875
-87.04,1769235721.234375
-112.89,1769235721.25
-134.05,1769235721.265625
-146.3,1769235721.28125
-146.53,1769235721.296875
-133.69,1769235721.3125
-109.24,1769235721.328125
-76.81,1769235721.34375
-41.18,1769235721.359375
-6.92,1769235721.375
22.79,1769235721.390625
46.57,1769235721.40625
64.47,1769235721.421875
77.11,1769235721.4375
84.91,1769235721.453125
87.8,1769235721.46875
85.55,1769235721.484375
78.39,1769235721.5
67.39,1769235721.515625
54.42,1769235721.53125
41.56,1769235721.546875
30.36,1769235721.5625
21.38,1769235721.578125
14.14,1769235721.59375
7.61,1769235721.609375
0.89,1769235721.625
-6.25,1769235721.640625
-13.3,1769235721.65625
-19.26,1769235721.671875
-23.33,1769235721.6875
-25.43,1769235721.703125
-26.55,1769235721.71875
-28.54,1769235721.734375
-33.64,1769235721.75
-43.76,1769235721.765625
-59.85,1769235721.78125
-81.45,1769235721.796875
-106.55,1769235721.8125
-131.73,1769235721.828125
-152.59,1769235721.84375
-164.66,1769235721.859375
-164.53,1769235721.875
-150.92,1769235721.890625
-125.25,1769235721.90625
-91.32,1769235721.921875
-54.24,1769235721.9375
-18.76,1769235721.953125
11.96,1769235721.96875
36.82,1769235721.984375
56.23,1769235722.0
71.03,1769235722.015625
81.54,1769235722.03125
87.31,1769235722.046875
87.63,1769235722.0625
82.35,1769235722.078125
72.46,1769235722.09375
60.03,1769235722.109375
47.46,1769235722.125
36.53,1769235722.140625
27.85,1769235722.15625
20.79,1769235722.171875
14.14,1769235722.1875
6.89,1769235722.203125
-1.14,1769235722.21875
-9.27,1769235722.234375
-16.42,1769235722.25
-21.82,1769235722.265625
-25.57,1769235722.28125
-28.75,1769235722.296875
-33.11,1769235722.3125
-40.5,1769235722.328125
-52.19,1769235722.34375
-68.54,1769235722.359375
-88.71,1769235722.375
-110.62,1769235722.390625
-131.09,1769235722.40625
-146.31,1769235722.421875
-152.61,1769235722.4375
-147.5,1769235722.453125
-130.58,1769235722.46875
-103.86,1769235722.484375
-71.29,1769235722.5
-37.52,1769235722.515625
-6.52,1769235722.53125
19.43,1769235722.546875
39.78,1769235722.5625
55.09,1769235722.578125
66.09,1769235722.59375
72.93,1769235722.609375
75.32,1769235722.625
72.92,1769235722.640625
66.18,1769235722.65625
56.49,1769235722.671875
46.02,1769235722.6875
36.92,1769235722.703125
30.59,1769235722.71875
27.25,1769235722.734375
26.05,1769235722.75
25.65,1769235722.765625
24.93,1769235722.78125
23.51,1769235722.796875
21.77,1769235722.8125
20.52,1769235722.828125
20.43,1769235722.84375
21.64,1769235722.859375
23.55,1769235722.875
25.01,1769235722.890625
24.66,1769235722.90625
21.28,1769235722.921875
14.22,1769235722.9375
3.79,1769235722.953125
-8.45,1769235722.96875
-19.62,1769235722.984375
-25.94,1769235723.0
-23.75,1769235723.015625
-10.75,1769235723.03125
12.97,1769235723.046875
44.61,1769235723.0625
79.49,1769235723.078125
112.49,1769235723.09375
139.76,1769235723.109375
159.62,1769235723.125
172.55,1769235723.140625
180.34,1769235723.15625
184.81,1769235723.171875
186.87,1769235723.1875
186.36,1769235723.203125
182.42,1769235723.21875
174.3,1769235723.234375
162.2,1769235723.25
147.59,1769235723.265625
133.03,1769235723.28125
121.58,1769235723.296875
115.72,1769235723.3125
116.38,1769235723.328125
122.33,1769235723.34375
130.1,1769235723.359375
135.0,1769235723.375
132.52,1769235723.390625
119.77,1769235723.40625
96.33,1769235723.421875
64.09,1769235723.4375
26.66,1769235723.453125
-11.89,1769235723.46875
-48.08,1769235723.484375
-79.89,1769235723.5
-107.34,1769235723.515625
-132.67,1769235723.53125
-159.96,1769235723.546875
-193.74,1769235723.5625
-236.75,1769235723.578125
-287.76,1769235723.59375
-340.68,1769235723.609375
-385.75,1769235723.625
-412.88,1769235723.640625
-415.46,1769235723.65625
-392.8,1769235723.671875
-350.06,1769235723.6875
-295.68,1769235723.703125
-237.95,1769235723.71875
-182.66,1769235723.734375
-132.74,1769235723.75
-89.56,1769235723.765625
-54.48,1769235723.78125
-29.35,1769235723.796875
-15.69,1769235723.8125
-13.13,1769235723.828125
-18.42,1769235723.84375
-26.19,1769235723.859375
-30.93,1769235723.875
-29.23,1769235723.890625
-21.1,1769235723.90625
-9.56,1769235723.921875
0.99,1769235723.9375
7.07,1769235723.953125
7.53,1769235723.96875
3.76,1769235723.984375
-1.43,1769235724.0
-5.48,1769235724.015625
-7.42,1769235724.03125
-8.19,1769235724.046875
-10.19,1769235724.0625
-16.04,1769235724.078125
-27.51,1769235724.09375
-44.77,1769235724.109375
-66.23,1769235724.125
-88.77,1769235724.140625
-108.2,1769235724.15625
-120.17,1769235724.171875
-121.18,1769235724.1875
-109.63,1769235724.203125
-86.47,1769235724.21875
-55.06,1769235724.234375
-20.09,1769235724.25
13.92,1769235724.265625
43.91,1769235724.28125
68.86,1769235724.296875
89.27,1769235724.3125
106.09,1769235724.328125
119.63,1769235724.34375
129.18,1769235724.359375
133.52,1769235724.375
131.77,1769235724.390625
124.29,1769235724.40625
112.77,1769235724.421875
99.74,1769235724.4375
87.56,1769235724.453125
77.56,1769235724.46875
69.77,1769235724.484375
63.15,1769235724.5
56.39,1769235724.515625
48.66,1769235724.53125
40.03,1769235724.546875
31.24,1769235724.5625
23.22,1769235724.578125
16.4,1769235724.59375
10.44,1769235724.609375
4.21,1769235724.625
-3.65,1769235724.640625
-14.32,1769235724.65625
-28.35,1769235724.671875
-45.52,1769235724.6875
-64.74,1769235724.703125
-84.06,1769235724.71875
-100.79,1769235724.734375
-111.85,1769235724.75
-114.41,1769235724.765625
-106.79,1769235724.78125
-89.15,1769235724.796875
-63.65,1769235724.8125
-33.79,1769235724.828125
-3.44,1769235724.84375
24.4,1769235724.859375
48.14,1769235724.875
67.47,1769235724.890625
82.68,1769235724.90625
93.89,1769235724.921875
100.7,1769235724.9375
102.43,1769235724.953125
98.72,1769235724.96875
90.1,1769235724.984375
78.18,1769235725.0
65.17,1769235725.015625
53.14,1769235725.03125
43.35,1769235725.046875
35.84,1769235725.0625
29.72,1769235725.078125
23.79,1769235725.09375
17.2,1769235725.109375
9.91,1769235725.125
2.63,1769235725.140625
-3.74,1769235725.15625
-8.72,1769235725.171875
-12.68,1769235725.1875
-16.89,1769235725.203125
-23.04,1769235725.21875
-32.6,1769235725.234375
-46.31,1769235725.25
-63.79,1769235725.265625
-83.49,1769235725.28125
-102.81,1769235725.296875
-118.38,1769235725.3125
-126.74,1769235725.328125
-125.11,1769235725.34375
-112.26,1769235725.359375
-89.05,1769235725.375
-58.29,1769235725.390625
-23.98,1769235725.40625
10.05,1769235725.421875
41.13,1769235725.4375
68.26,1769235725.453125
91.63,1769235725.46875
111.8,1769235725.484375
128.8,1769235725.5
142.05,1769235725.515625
150.72,1769235725.53125
154.55,1769235725.546875
154.44,1769235725.5625
152.31,1769235725.578125
150.5,1769235725.59375
150.73,1769235725.609375
153.5,1769235725.625
157.84,1769235725.640625
161.94,1769235725.65625
163.93,1769235725.671875
162.67,1769235725.6875
158.03,1769235725.703125
150.68,1769235725.71875
141.55,1769235725.734375
131.23,1769235725.75
119.63,1769235725.765625
105.98,1769235725.78125
89.12,1769235725.796875
67.7,1769235725.8125
40.62,1769235725.828125
7.36,1769235725.84375
-31.47,1769235725.859375
-73.59,1769235725.875
-114.85,1769235725.890625
-149.77,1769235725.90625
-172.87,1769235725.921875
-180.38,1769235725.9375
-171.58,1769235725.953125
-149.09,1769235725.96875
-117.84,1769235725.984375
-83.32,1769235726.0
-49.87,1769235726.015625
-19.91,1769235726.03125
5.77,1769235726.046875
27.1,1769235726.0625
43.79,1769235726.078125
55.07,1769235726.09375
60.05,1769235726.109375
58.38,1769235726.125
50.6,1769235726.140625
38.11,1769235726.15625
22.72,1769235726.171875
6.17,1769235726.1875
-10.11,1769235726.203125
-25.06,1769235726.21875
-37.86,1769235726.234375
-47.85,1769235726.25
-54.62,1769235726.265625
-58.24,1769235726.28125
-59.26,1769235726.296875
-58.8,1769235726.3125
-58.2,1769235726.328125
-58.69,1769235726.34375
-61.1,1769235726.359375
-65.73,1769235726.375
-72.38,1769235726.390625
-80.68,1769235726.40625
-90.39,1769235726.421875
-101.63,1769235726.4375
-114.84,1769235726.453125
-130.36,1769235726.46875
-147.9,1769235726.484375
-165.8,1769235726.5
-180.89,1769235726.515625
-189.01,1769235726.53125
-186.2,1769235726.546875
-170.21,1769235726.5625
-141.55,1769235726.578125
-103.54,1769235726.59375
-61.32,1769235726.609375
-20.13,1769235726.625
16.23,1769235726.640625
46.21,1769235726.65625
70.15,1769235726.671875
89.29,1769235726.6875
104.68,1769235726.703125
116.46,1769235726.71875
123.99,1769235726.734375
126.35,1769235726.75
123.15,1769235726.765625
114.91,1769235726.78125
103.12,1769235726.796875
89.84,1769235726.8125
77.04,1769235726.828125
66.12,1769235726.84375
57.51,1769235726.859375
50.83,1769235726.875
45.18,1769235726.890625
39.63,1769235726.90625
33.63,1769235726.921875
27.1,1769235726.9375
20.35,1769235726.953125
13.71,1769235726.96875
7.32,1769235726.984375
0.92,1769235727.0
-5.99,1769235727.015625
-14.02,1769235727.03125
-23.64,1769235727.046875
-35.15,1769235727.0625
-48.66,1769235727.078125
-64.05,1769235727.09375
-80.72,1769235727.109375
-97.11,1769235727.125
-110.56,1769235727.140625
-117.56,1769235727.15625
-114.74,1769235727.171875
-100.2,1769235727.1875
-74.57,1769235727.203125
-41.12,1769235727.21875
-4.84,1769235727.234375
29.21,1769235727.25
57.56,1769235727.265625
78.94,1769235727.28125
93.98,1769235727.296875
104.18,1769235727.3125
110.69,1769235727.328125
113.91,1769235727.34375
113.53,1769235727.359375
109.28,1769235727.375
101.48,1769235727.390625
91.24,1769235727.40625
80.19,1769235727.421875
69.91,1769235727.4375
61.38,1769235727.453125
54.59,1769235727.46875
48.76,1769235727.484375
42.75,1769235727.5
35.66,1769235727.515625
27.19,1769235727.53125
17.82,1769235727.546875
8.45,1769235727.5625
-0.08,1769235727.578125
-7.51,1769235727.59375
-14.35,1769235727.609375
-21.77,1769235727.625
-31.14,1769235727.640625
-43.5,1769235727.65625
-59.16,1769235727.671875
-77.48,1769235727.6875
-96.72,1769235727.703125
-114.2,1769235727.71875
-126.61,1769235727.734375
-130.76,1769235727.75
-124.39,1769235727.765625
-107.04,1769235727.78125
-80.45,1769235727.796875
-48.25,1769235727.8125
-14.92,1769235727.828125
15.48,1769235727.84375
40.38,1769235727.859375
59.03,1769235727.875
71.93,1769235727.890625
79.99,1769235727.90625
83.66,1769235727.921875
82.82,1769235727.9375
77.14,1769235727.953125
66.89,1769235727.96875
53.29,1769235727.984375
38.46,1769235728.0
24.71,1769235728.015625
13.61,1769235728.03125
5.5,1769235728.046875
-0.47,1769235728.0625
-5.73,1769235728.078125
-11.45,1769235728.09375
-17.92,1769235728.109375
-24.5,1769235728.125
-30.14,1769235728.140625
-34.09,1769235728.15625
-36.53,1769235728.171875
-38.57,1769235728.1875
-41.91,1769235728.203125
-48.12,1769235728.21875
-58.03,1769235728.234375
-71.46,1769235728.25
-87.23,1769235728.265625
-103.39,1769235728.28125
-117.34,1769235728.296875
-126.22,1769235728.3125
-127.26,1769235728.328125
-118.53,1769235728.34375
-99.66,1769235728.359375
-72.24,1769235728.375
-39.59,1769235728.390625
-5.83,1769235728.40625
25.4,1769235728.421875
51.91,1769235728.4375
73.26,1769235728.453125
90.13,1769235728.46875
103.42,1769235728.484375
113.45,1769235728.5
119.79,1769235728.515625
121.69,1769235728.53125
118.81,1769235728.546875
111.71,1769235728.5625
101.91,1769235728.578125
91.34,1769235728.59375
81.67,1769235728.609375
73.7,1769235728.625
67.25,1769235728.640625
61.44,1769235728.65625
55.23,1769235728.671875
47.98,1769235728.6875
39.71,1769235728.703125
31.05,1769235728.71875
22.76,1769235728.734375
15.34,1769235728.75
8.68,1769235728.765625
2.06,1769235728.78125
-5.54,1769235728.796875
-15.2,1769235728.8125
-27.64,1769235728.828125
-43.18,1769235728.84375
-61.54,1769235728.859375
-81.69,1769235728.875
-101.67,1769235728.890625
-118.54,1769235728.90625
-128.76,1769235728.921875
-129.04,1769235728.9375
-117.57,1769235728.953125
-94.94,1769235728.96875
-64.21,1769235728.984375
-30.15,1769235729.0
2.4,1769235729.015625
29.99,1769235729.03125
51.33,1769235729.046875
67.04,1769235729.0625
78.59,1769235729.078125
87.21,1769235729.09375
93.27,1769235729.109375
96.38,1769235729.125
95.97,1769235729.140625
91.88,1769235729.15625
84.62,1769235729.171875
75.26,1769235729.1875
65.09,1769235729.203125
55.27,1769235729.21875
46.65,1769235729.234375
39.63,1769235729.25
34.28,1769235729.265625
30.24,1769235729.28125
26.93,1769235729.296875
23.59,1769235729.3125
19.56,1769235729.328125
14.32,1769235729.34375
7.67,1769235729.359375
-0.33,1769235729.375
-9.42,1769235729.390625
-19.23,1769235729.40625
-29.47,1769235729.421875
-39.98,1769235729.4375
-50.91,1769235729.453125
-62.76,1769235729.46875
-76.12,1769235729.484375
-91.29,1769235729.5
-107.65,1769235729.515625
-123.16,1769235729.53125
-134.45,1769235729.546875
-137.64,1769235729.5625
-129.63,1769235729.578125
-109.53,1769235729.59375
-79.3,1769235729.609375
-43.36,1769235729.625
-7.14,1769235729.640625
24.67,1769235729.65625
49.48,1769235729.671875
67.15,1769235729.6875
79.27,1769235729.703125
87.82,1769235729.71875
94.09,1769235729.734375
98.17,1769235729.75
99.34,1769235729.765625
96.76,1769235729.78125
90.26,1769235729.796875
80.59,1769235729.8125
69.23,1769235729.828125
57.96,1769235729.84375
48.16,1769235729.859375
40.54,1769235729.875
35.0,1769235729.890625
30.84,1769235729.90625
27.16,1769235729.921875
23.18,1769235729.9375
18.55,1769235729.953125
13.3,1769235729.96875
7.66,1769235729.984375
1.96,1769235730.0
-3.67,1769235730.015625
-9.37,1769235730.03125
-15.5,1769235730.046875
-22.62,1769235730.0625
-31.35,1769235730.078125
-42.28,1769235730.09375
-55.66,1769235730.109375
-71.04,1769235730.125
-86.84,1769235730.140625
-100.15,1769235730.15625
-107.17,1769235730.171875
-104.22,1769235730.1875
-89.08,1769235730.203125
-62.21,1769235730.21875
-27.09,1769235730.234375
10.7,1769235730.25
45.11,1769235730.265625
71.58,1769235730.28125
88.29,1769235730.296875
96.12,1769235730.3125
97.69,1769235730.328125
95.81,1769235730.34375
92.24,1769235730.359375
87.39,1769235730.375
80.77,1769235730.390625
71.91,1769235730.40625
61.07,1769235730.421875
49.34,1769235730.4375
38.24,1769235730.453125
29.04,1769235730.46875
22.17,1769235730.484375
17.21,1769235730.5
13.21,1769235730.515625
9.24,1769235730.53125
4.91,1769235730.546875
0.39,1769235730.5625
-3.77,1769235730.578125
-7.18,1769235730.59375
-9.94,1769235730.609375
-12.77,1769235730.625
-16.78,1769235730.640625
-22.96,1769235730.65625
-31.82,1769235730.671875
-43.08,1769235730.6875
-55.78,1769235730.703125
-68.37,1769235730.71875
-78.9,1769235730.734375
-85.04,1769235730.75
-84.32,1769235730.765625
-74.43,1769235730.78125
-53.93,1769235730.796875
-22.87,1769235730.8125
16.88,1769235730.828125
61.91,1769235730.84375
108.14,1769235730.859375
151.89,1769235730.875
190.49,1769235730.890625
222.43,1769235730.90625
246.81,1769235730.921875
262.78,1769235730.9375
269.52,1769235730.953125
266.5,1769235730.96875
254.11,1769235730.984375
233.8,1769235731.0
207.73,1769235731.015625
177.82,1769235731.03125
145.21,1769235731.046875
110.33,1769235731.0625
73.64,1769235731.078125
36.41,1769235731.09375
0.85,1769235731.109375
-30.79,1769235731.125
-57.54,1769235731.140625
-80.64,1769235731.15625
-103.53,1769235731.171875
-130.92,1769235731.1875
-167.2,1769235731.203125
-215.12,1769235731.21875
-274.78,1769235731.234375
-343.15,1769235731.25
-414.22,1769235731.265625
-479.71,1769235731.28125
-530.69,1769235731.296875
-559.79,1769235731.3125
-563.34,1769235731.328125
-542.52,1769235731.34375
-502.82,1769235731.359375
-451.99,1769235731.375
-397.33,1769235731.390625
-343.64,1769235731.40625
-292.69,1769235731.421875
-243.98,1769235731.4375
-195.9,1769235731.453125
-146.84,1769235731.46875
-95.79,1769235731.484375
-42.72,1769235731.5
11.06,1769235731.515625
62.71,1769235731.53125
108.16,1769235731.546875
143.19,1769235731.5625
164.93,1769235731.578125
172.93,1769235731.59375
169.46,1769235731.609375
158.64,1769235731.625
144.88,1769235731.640625
131.43,1769235731.65625
119.84,1769235731.671875
110.11,1769235731.6875
101.63,1769235731.703125
93.87,1769235731.71875
86.65,1769235731.734375
79.95,1769235731.75
73.48,1769235731.765625
66.53,1769235731.78125
58.03,1769235731.796875
46.97,1769235731.8125
32.68,1769235731.828125
14.97,1769235731.84375
-5.79,1769235731.859375
-28.61,1769235731.875
-51.73,1769235731.890625
-72.42,1769235731.90625
-87.24,1769235731.921875
-92.72,1769235731.9375
-86.54,1769235731.953125
-68.57,1769235731.96875
-41.27,1769235731.984375
-9.04,1769235732.0
23.22,1769235732.015625
51.72,1769235732.03125
74.75,1769235732.046875
92.47,1769235732.0625
106.04,1769235732.078125
116.36,1769235732.09375
123.45,1769235732.109375
126.62,1769235732.125
125.14,1769235732.140625
119.06,1769235732.15625
109.44,1769235732.171875
98.09,1769235732.1875
86.84,1769235732.203125
76.87,1769235732.21875
68.31,1769235732.234375
60.49,1769235732.25
52.45,1769235732.265625
43.53,1769235732.28125
33.76,1769235732.296875
23.8,1769235732.3125
14.48,1769235732.328125
6.31,1769235732.34375
-0.92,1769235732.359375
-8.16,1769235732.375
-16.75,1769235732.390625
-27.98,1769235732.40625
-42.68,1769235732.421875
-60.99,1769235732.4375
-82.21,1769235732.453125
-104.73,1769235732.46875
-125.94,1769235732.484375
-142.44,1769235732.5
-150.59,1769235732.515625
-147.47,1769235732.53125
-131.92,1769235732.546875
-105.16,1769235732.5625
-70.64,1769235732.578125
-33.01,1769235732.59375
3.29,1769235732.609375
35.19,1769235732.625
61.53,1769235732.640625
82.61,1769235732.65625
99.3,1769235732.671875
112.19,1769235732.6875
121.2,1769235732.703125
125.77,1769235732.71875
125.41,1769235732.734375
120.29,1769235732.75
111.44,1769235732.765625
100.52,1769235732.78125
89.42,1769235732.796875
79.59,1769235732.8125
71.66,1769235732.828125
65.41,1769235732.84375
59.98,1769235732.859375
54.37,1769235732.875
47.88,1769235732.890625
40.34,1769235732.90625
32.06,1769235732.921875
23.52,1769235732.9375
15.08,1769235732.953125
6.7,1769235732.96875
-1.96,1769235732.984375
-11.47,1769235733.0
-22.41,1769235733.015625
-35.32,1769235733.03125
-50.6,1769235733.046875
-68.4,1769235733.0625
-88.22,1769235733.078125
-108.45,1769235733.09375
-126.12,1769235733.109375
-137.27,1769235733.125
-137.95,1769235733.140625
-125.68,1769235733.15625
-100.56,1769235733.171875
-65.58,1769235733.1875
-25.74,1769235733.203125
13.53,1769235733.21875
48.1,1769235733.234375
76.01,1769235733.25
97.37,1769235733.265625
113.44,1769235733.28125
125.39,1769235733.296875
133.64,1769235733.3125
137.77,1769235733.328125
137.1,1769235733.34375
131.43,1769235733.359375
121.42,1769235733.375
108.6,1769235733.390625
94.96,1769235733.40625
82.33,1769235733.421875
71.83,1769235733.4375
63.69,1769235733.453125
57.39,1769235733.46875
52.0,1769235733.484375
46.68,1769235733.5
40.99,1769235733.515625
34.93,1769235733.53125
28.72,1769235733.546875
22.47,1769235733.5625
15.96,1769235733.578125
8.62,1769235733.59375
-0.26,1769235733.609375
-11.25,1769235733.625
-24.63,1769235733.640625
-40.37,1769235733.65625
-58.21,1769235733.671875
-77.5,1769235733.6875
-96.88,1769235733.703125
-113.96,1769235733.71875
-125.41,1769235733.734375
-127.68,1769235733.75
-118.24,1769235733.765625
-96.81,1769235733.78125
-65.87,1769235733.796875
-29.98,1769235733.8125
5.74,1769235733.828125
37.23,1769235733.84375
62.53,1769235733.859375
81.74,1769235733.875
95.99,1769235733.890625
106.25,1769235733.90625
112.61,1769235733.921875
114.39,1769235733.9375
110.91,1769235733.953125
102.3,1769235733.96875
89.89,1769235733.984375
75.91,1769235734.0
62.66,1769235734.015625
51.79,1769235734.03125
43.76,1769235734.046875
37.95,1769235734.0625
33.15,1769235734.078125
28.24,1769235734.09375
22.61,1769235734.109375
16.33,1769235734.125
9.9,1769235734.140625
3.82,1769235734.15625
-1.73,1769235734.171875
-7.08,1769235734.1875
-13.01,1769235734.203125
-20.46,1769235734.21875
-30.29,1769235734.234375
-43.02,1769235734.25
-58.84,1769235734.265625
-77.35,1769235734.28125
-97.39,1769235734.296875
-116.81,1769235734.3125
-132.42,1769235734.328125
-140.52,1769235734.34375
-137.86,1769235734.359375
-122.83,1769235734.375
-96.34,1769235734.390625
-61.8,1769235734.40625
-24.24,1769235734.421875
11.31,1769235734.4375
41.19,1769235734.453125
63.86,1769235734.46875
79.79,1769235734.484375
90.47,1769235734.5
97.43,1769235734.515625
101.51,1769235734.53125
102.82,1769235734.546875
101.11,1769235734.5625
96.27,1769235734.578125
88.72,1769235734.59375
79.36,1769235734.609375
69.37,1769235734.625
59.86,1769235734.640625
51.59,1769235734.65625
44.96,1769235734.671875
39.95,1769235734.6875
36.3,1769235734.703125
33.51,1769235734.71875
30.93,1769235734.734375
27.8,1769235734.75
23.39,1769235734.765625
17.17,1769235734.78125
9.01,1769235734.796875
-0.76,1769235734.8125
-11.44,1769235734.828125
-22.2,1769235734.84375
-32.43,1769235734.859375
-42.06,1769235734.875
-51.6,1769235734.890625
-62.05,1769235734.90625
-74.45,1769235734.921875
-89.26,1769235734.9375
-105.72,1769235734.953125
-121.54,1769235734.96875
-133.16,1769235734.984375
-136.66,1769235735.0
-129.09,1769235735.015625
-109.69,1769235735.03125
-80.35,1769235735.046875
-45.19,1769235735.0625
-9.16,1769235735.078125
23.5,1769235735.09375
50.42,1769235735.109375
71.3,1769235735.125
87.18,1769235735.140625
99.38,1769235735.15625
108.61,1769235735.171875
114.86,1769235735.1875
117.75,1769235735.203125
117.27,1769235735.21875
114.1,1769235735.234375
109.43,1769235735.25
104.49,1769235735.265625
100.01,1769235735.28125
96.03,1769235735.296875
92.16,1769235735.3125
88.1,1769235735.328125
84.03,1769235735.34375
80.71,1769235735.359375
79.03,1769235735.375
79.51,1769235735.390625
81.79,1769235735.40625
84.61,1769235735.421875
86.13,1769235735.4375
84.68,1769235735.453125
79.38,1769235735.46875
70.58,1769235735.484375
59.82,1769235735.5
49.25,1769235735.515625
40.79,1769235735.53125
35.32,1769235735.546875
32.21,1769235735.5625
29.36,1769235735.578125
23.91,1769235735.59375
13.11,1769235735.609375
-4.67,1769235735.625
-29.29,1769235735.640625
-58.49,1769235735.65625
-88.15,1769235735.671875
-113.1,1769235735.6875
-128.34,1769235735.703125
-130.41,1769235735.71875
-118.51,1769235735.734375
-94.68,1769235735.75
-63.19,1769235735.765625
-29.1,1769235735.78125
3.31,1769235735.796875
31.5,1769235735.8125
54.77,1769235735.828125
73.57,1769235735.84375
88.48,1769235735.859375
99.59,1769235735.875
106.46,1769235735.890625
108.68,1769235735.90625
106.55,1769235735.921875
101.43,1769235735.9375
95.44,1769235735.953125
90.9,1769235735.96875
89.46,1769235735.984375
91.64,1769235736.0
96.65,1769235736.015625
102.73,1769235736.03125
107.75,1769235736.046875
109.82,1769235736.0625
107.71,1769235736.078125
101.13,1769235736.09375
90.4,1769235736.109375
76.13,1769235736.125
58.82,1769235736.140625
38.53,1769235736.15625
14.95,1769235736.171875
-11.96,1769235736.1875
-40.98,1769235736.203125
-68.98,1769235736.21875
-91.5,1769235736.234375
-104.29,1769235736.25
-105.77,1769235736.265625
-98.51,1769235736.28125
-89.01,1769235736.296875
-85.58,1769235736.3125
-95.43,1769235736.328125
-122.54,1769235736.34375
-166.73,1769235736.359375
-224.31,1769235736.375
-289.1,1769235736.390625
-353.4,1769235736.40625
-408.83,1769235736.421875
-447.4,1769235736.4375
-463.09,1769235736.453125
-453.37,1769235736.46875
-420.03,1769235736.484375
-368.46,1769235736.5
-305.78,1769235736.515625
-238.73,1769235736.53125
-172.47,1769235736.546875
-110.77,1769235736.5625
-56.75,1769235736.578125
-13.11,1769235736.59375
18.32,1769235736.609375
37.47,1769235736.625
46.5,1769235736.640625
49.25,1769235736.65625
49.75,1769235736.671875
50.87,1769235736.6875
53.62,1769235736.703125
57.65,1769235736.71875
61.82,1769235736.734375
65.16,1769235736.75
67.17,1769235736.765625
67.61,1769235736.78125
66.36,1769235736.796875
63.3,1769235736.8125
58.36,1769235736.828125
51.69,1769235736.84375
43.6,1769235736.859375
34.62,1769235736.875
25.29,1769235736.890625
16.09,1769235736.90625
7.22,1769235736.921875
-1.47,1769235736.9375
-10.58,1769235736.953125
-21.03,1769235736.96875
-33.74,1769235736.984375
-48.93,1769235737.0
-65.54,1769235737.015625
-80.92,1769235737.03125
-91.33,1769235737.046875
-93.0,1769235737.0625
-83.61,1769235737.078125
-63.29,1769235737.09375
-34.79,1769235737.109375
-2.57,1769235737.125
28.63,1769235737.140625
55.25,1769235737.15625
75.59,1769235737.171875
89.65,1769235737.1875
98.43,1769235737.203125
103.04,1769235737.21875
104.19,1769235737.234375
102.26,1769235737.25
97.54,1769235737.265625
90.6,1769235737.28125
82.28,1769235737.296875
73.5,1769235737.3125
64.95,1769235737.328125
56.88,1769235737.34375
49.25,1769235737.359375
41.91,1769235737.375
34.9,1769235737.390625
28.55,1769235737.40625
23.29,1769235737.421875
19.35,1769235737.4375
16.47,1769235737.453125
13.86,1769235737.46875
10.48,1769235737.484375
5.52,1769235737.5
-1.16,1769235737.515625
-8.98,1769235737.53125
-16.88,1769235737.546875
-23.91,1769235737.5625
-29.72,1769235737.578125
-34.75,1769235737.59375
-40.09,1769235737.609375
-47.03,1769235737.625
-56.51,1769235737.640625
-68.68,1769235737.65625
-82.54,1769235737.671875
-95.91,1769235737.6875
-105.74,1769235737.703125
-108.74,1769235737.71875
-102.38,1769235737.734375
-85.85,1769235737.75
-60.57,1769235737.765625
-29.95,1769235737.78125
1.58,1769235737.796875
29.94,1769235737.8125
52.58,1769235737.828125
68.89,1769235737.84375
79.81,1769235737.859375
86.9,1769235737.875
91.36,1769235737.890625
93.58,1769235737.90625
93.2,1769235737.921875
89.74,1769235737.9375
83.19,1769235737.953125
74.35,1769235737.96875
64.67,1769235737.984375
55.75,1769235738.0
48.81,1769235738.015625
44.24,1769235738.03125
41.55,1769235738.046875
39.76,1769235738.0625
37.85,1769235738.078125
35.2,1769235738.09375
31.78,1769235738.109375
28.07,1769235738.125
24.7,1769235738.140625
22.02,1769235738.15625
19.92,1769235738.171875
17.77,1769235738.1875
14.7,1769235738.203125
9.95,1769235738.21875
3.11,1769235738.234375
-5.78,1769235738.25
-16.22,1769235738.265625
-27.36,1769235738.28125
-37.92,1769235738.296875
-46.2,1769235738.3125
-50.19,1769235738.328125
-47.96,1769235738.34375
-38.29,1769235738.359375
-21.14,1769235738.375
2.3,1769235738.390625
29.98,1769235738.40625
59.59,1769235738.421875
88.99,1769235738.4375
116.16,1769235738.453125
138.93,1769235738.46875
154.79,1769235738.484375
161.18,1769235738.5
156.18,1769235738.515625
139.36,1769235738.53125
112.45,1769235738.546875
79.39,1769235738.5625
45.84,1769235738.578125
17.99,1769235738.59375
0.87,1769235738.609375
-3.36,1769235738.625
3.55,1769235738.640625
15.93,1769235738.65625
25.64,1769235738.671875
24.5,1769235738.6875
6.92,1769235738.703125
-28.28,1769235738.71875
-77.66,1769235738.734375
-134.48,1769235738.75
-190.74,1769235738.765625
-239.27,1769235738.78125
-274.97,1769235738.796875
-295.35,1769235738.8125
-300.38,1769235738.828125
-292.07,1769235738.84375
-274.03,1769235738.859375
-250.93,1769235738.875
-227.7,1769235738.890625
-208.74,1769235738.90625
-196.91,1769235738.921875
-192.75,1769235738.9375
-194.01,1769235738.953125
-195.97,1769235738.96875
-192.68,1769235738.984375
-178.8,1769235739.0
-151.55,1769235739.015625
-111.88,1769235739.03125
-64.25,1769235739.046875
-15.07,1769235739.0625
29.42,1769235739.078125
65.22,1769235739.09375
91.29,1769235739.109375
109.1,1769235739.125
121.28,1769235739.140625
130.14,1769235739.15625
136.79,1769235739.171875
141.18,1769235739.1875
142.6,1769235739.203125
140.42,1769235739.21875
134.6,1769235739.234375
125.74,1769235739.25
114.88,1769235739.265625
103.21,1769235739.28125
91.83,1769235739.296875
81.6,1769235739.3125
73.03,1769235739.328125
66.18,1769235739.34375
60.64,1769235739.359375
55.66,1769235739.375
50.25,1769235739.390625
43.58,1769235739.40625
35.11,1769235739.421875
24.85,1769235739.4375
13.26,1769235739.453125
1.11,1769235739.46875
-10.87,1769235739.484375
-22.26,1769235739.5
-33.16,1769235739.515625
-44.23,1769235739.53125
-56.44,1769235739.546875
-70.78,1769235739.5625
-87.63,1769235739.578125
-106.23,1769235739.59375
-124.34,1769235739.609375
-138.4,1769235739.625
-144.36,1769235739.640625
-138.95,1769235739.65625
-120.95,1769235739.671875
-91.84,1769235739.6875
-55.56,1769235739.703125
-17.27,1769235739.71875
18.17,1769235739.734375
47.6,1769235739.75
69.98,1769235739.765625
86.11,1769235739.78125
97.56,1769235739.796875
105.73,1769235739.8125
111.26,1769235739.828125
114.08,1769235739.84375
113.83,1769235739.859375
110.33,1769235739.875
103.88,1769235739.890625
95.27,1769235739.90625
85.56,1769235739.921875
75.84,1769235739.9375
66.97,1769235739.953125
59.49,1769235739.96875
53.6,1769235739.984375
49.16,1769235740.0
45.71,1769235740.015625
42.52,1769235740.03125
38.74,1769235740.046875
33.61,1769235740.0625
26.68,1769235740.078125
18.03,1769235740.09375
8.22,1769235740.109375
-1.93,1769235740.125
-11.73,1769235740.140625
-20.9,1769235740.15625
-29.82,1769235740.171875
-39.33,1769235740.1875
-50.56,1769235740.203125
-64.34,1769235740.21875
-80.68,1769235740.234375
-98.2,1769235740.25
-114.05,1769235740.265625
-124.23,1769235740.28125
-124.71,1769235740.296875
-112.78,1769235740.3125
-88.19,1769235740.328125
-53.45,1769235740.34375
-13.21,1769235740.359375
27.33,1769235740.375
64.0,1769235740.390625
94.74,1769235740.40625
119.57,1769235740.421875
139.79,1769235740.4375
156.73,1769235740.453125
170.91,1769235740.46875
181.86,1769235740.484375
188.68,1769235740.5
190.86,1769235740.515625
188.93,1769235740.53125
184.67,1769235740.546875
180.64,1769235740.5625
179.22,1769235740.578125
181.54,1769235740.59375
186.74,1769235740.609375
192.0,1769235740.625
193.44,1769235740.640625
187.57,1769235740.65625
172.64,1769235740.671875
149.37,1769235740.6875
120.74,1769235740.703125
90.8,1769235740.71875
63.22,1769235740.734375
40.07,1769235740.75
21.41,1769235740.765625
5.52,1769235740.78125
-10.29,1769235740.796875
-28.75,1769235740.8125
-51.93,1769235740.828125
-80.65,1769235740.84375
-113.96,1769235740.859375
-148.95,1769235740.875
-180.87,1769235740.890625
-203.94,1769235740.90625
-212.88,1769235740.921875
-204.68,1769235740.9375
-179.83,1769235740.953125
-142.45,1769235740.96875
-99.1,1769235740.984375
-56.63,1769235741.0
-20.16,1769235741.015625
7.98,1769235741.03125
28.01,1769235741.046875
41.43,1769235741.0625
49.61,1769235741.078125
53.05,1769235741.09375
51.56,1769235741.109375
45.07,1769235741.125
34.47,1769235741.140625
21.8,1769235741.15625
9.9,1769235741.171875
1.69,1769235741.1875
-0.67,1769235741.203125
3.55,1769235741.21875
13.19,1769235741.234375
25.06,1769235741.25
34.32,1769235741.265625
35.48,1769235741.28125
23.97,1769235741.296875
-2.33,1769235741.3125
-42.13,1769235741.328125
-90.96,1769235741.34375
-142.53,1769235741.359375
-190.65,1769235741.375
-230.85,1769235741.390625
-261.14,1769235741.40625
-281.87,1769235741.421875
-294.85,1769235741.4375
-302.35,1769235741.453125
-306.2,1769235741.46875
-307.31,1769235741.484375
-305.29,1769235741.5
-298.73,1769235741.515625
-285.63,1769235741.53125
-264.11,1769235741.546875
-233.13,1769235741.5625
-192.93,1769235741.578125
-145.14,1769235741.59375
-92.61,1769235741.609375
-39.02,1769235741.625
11.72,1769235741.640625
56.06,1769235741.65625
91.49,1769235741.671875
116.93,1769235741.6875
132.8,1769235741.703125
140.67,1769235741.71875
142.51,1769235741.734375
140.05,1769235741.75
134.48,1769235741.765625
126.59,1769235741.78125
117.12,1769235741.796875
107.13,1769235741.8125
97.83,1769235741.828125
90.2,1769235741.84375
84.56,1769235741.859375
80.34,1769235741.875
76.37,1769235741.890625
71.4,1769235741.90625
64.65,1769235741.921875
56.06,1769235741.9375
46.22,1769235741.953125
35.99,1769235741.96875
26.0,1769235741.984375
16.37,1769235742.0
6.65,1769235742.015625
-3.95,1769235742.03125
-16.33,1769235742.046875
-31.2,1769235742.0625
-48.86,1769235742.078125
-68.88,1769235742.09375
-89.72,1769235742.109375
-108.62,1769235742.125
-121.84,1769235742.140625
-125.59,1769235742.15625
-117.29,1769235742.171875
-96.68,1769235742.1875
-66.16,1769235742.203125
-30.08,1769235742.21875
6.62,1769235742.234375
39.97,1769235742.25
67.8,1769235742.265625
89.8,1769235742.28125
106.73,1769235742.296875
119.51,1769235742.3125
128.7,1769235742.328125
134.39,1769235742.34375
136.56,1769235742.359375
135.36,1769235742.375
131.22,1769235742.390625
124.75,1769235742.40625
116.56,1769235742.421875
107.24,1769235742.4375
97.41,1769235742.453125
87.8,1769235742.46875
79.13,1769235742.484375
71.99,1769235742.5
66.49,1769235742.515625
62.19,1769235742.53125
58.11,1769235742.546875
53.1,1769235742.5625
46.25,1769235742.578125
37.2,1769235742.59375
26.27,1769235742.609375
14.29,1769235742.625
2.2,1769235742.640625
-9.35,1769235742.65625
-20.21,1769235742.671875
-30.89,1769235742.6875
-42.32,1769235742.703125
-55.54,1769235742.71875
-71.3,1769235742.734375
-89.43,1769235742.75
-108.45,1769235742.765625
-125.43,1769235742.78125
-136.46,1769235742.796875
-137.67,1769235742.8125
-126.63,1769235742.828125
-103.31,1769235742.84375
-70.34,1769235742.859375
-32.34,1769235742.875
5.66,1769235742.890625
39.63,1769235742.90625
67.49,1769235742.921875
89.09,1769235742.9375
105.46,1769235742.953125
117.82,1769235742.96875
126.9,1769235742.984375
132.86,1769235743.0
135.6,1769235743.015625
135.23,1769235743.03125
132.27,1769235743.046875
127.54,1769235743.0625
121.87,1769235743.078125
115.83,1769235743.09375
109.71,1769235743.109375
103.7,1769235743.125
98.14,1769235743.140625
93.67,1769235743.15625
90.96,1769235743.171875
90.34,1769235743.1875
91.35,1769235743.203125
92.71,1769235743.21875
92.7,1769235743.234375
89.84,1769235743.25
83.58,1769235743.265625
74.63,1769235743.28125
64.69,1769235743.296875
55.78,1769235743.3125
49.32,1769235743.328125
45.53,1769235743.34375
43.21,1769235743.359375
40.16,1769235743.375
34.01,1769235743.390625
23.27,1769235743.40625
8.15,1769235743.421875
-8.95,1769235743.4375
-23.85,1769235743.453125
-31.63,1769235743.46875
-28.25,1769235743.484375
-11.96,1769235743.5
15.97,1769235743.515625
51.62,1769235743.53125
89.63,1769235743.546875
124.91,1769235743.5625
154.03,1769235743.578125
175.68,1769235743.59375
190.32,1769235743.609375
199.11,1769235743.625
202.72,1769235743.640625
200.75,1769235743.65625
191.78,1769235743.671875
173.97,1769235743.6875
146.13,1769235743.703125
108.9,1769235743.71875
65.55,1769235743.734375
21.88,1769235743.75
-15.26,1769235743.765625
-40.36,1769235743.78125
-51.73,1769235743.796875
-52.72,1769235743.8125
-50.91,1769235743.828125
-55.39,1769235743.84375
-73.34,1769235743.859375
-107.44,1769235743.875
-155.13,1769235743.890625
-209.96,1769235743.90625
-264.12,1769235743.921875
-310.9,1769235743.9375
-345.95,1769235743.953125
-367.43,1769235743.96875
-375.36,1769235743.984375
-371.07,1769235744.0
-356.94,1769235744.015625
-336.33,1769235744.03125
-313.33,1769235744.046875
-291.83,1769235744.0625
-274.4,1769235744.078125
-261.17,1769235744.09375
-249.41,1769235744.109375
-234.35,1769235744.125
-211.06,1769235744.140625
-176.61,1769235744.15625
-131.64,1769235744.171875
-80.35,1769235744.1875
-29.07,1769235744.203125
16.17,1769235744.21875
51.56,1769235744.234375
76.44,1769235744.25
92.63,1769235744.265625
102.97,1769235744.28125
109.72,1769235744.296875
113.87,1769235744.3125
115.22,1769235744.328125
113.17,1769235744.34375
107.56,1769235744.359375
99.02,1769235744.375
88.93,1769235744.390625
78.89,1769235744.40625
70.28,1769235744.421875
63.88,1769235744.4375
59.74,1769235744.453125
57.35,1769235744.46875
55.77,1769235744.484375
53.9,1769235744.5
50.74,1769235744.515625
45.73,1769235744.53125
38.79,1769235744.546875
30.35,1769235744.5625
21.08,1769235744.578125
11.57,1769235744.59375
2.05,1769235744.609375
-7.66,1769235744.625
-18.03,1769235744.640625
-29.59,1769235744.65625
-42.74,1769235744.671875
-57.49,1769235744.6875
-73.29,1769235744.703125
-88.74,1769235744.71875
-101.55,1769235744.734375
-108.79,1769235744.75
-107.66,1769235744.765625
-96.5,1769235744.78125
-75.69,1769235744.796875
-47.74,1769235744.8125
-16.78,1769235744.828125
12.84,1769235744.84375
37.85,1769235744.859375
56.82,1769235744.875
70.14,1769235744.890625
79.2,1769235744.90625
85.48,1769235744.921875
89.82,1769235744.9375
92.31,1769235744.953125
92.63,1769235744.96875
90.47,1769235744.984375
85.97,1769235745.0
79.67,1769235745.015625
72.46,1769235745.03125
65.25,1769235745.046875
58.78,1769235745.0625
53.51,1769235745.078125
49.56,1769235745.09375
46.72,1769235745.109375
44.56,1769235745.125
42.43,1769235745.140625
39.65,1769235745.15625
35.68,1769235745.171875
30.29,1769235745.1875
23.63,1769235745.203125
16.12,1769235745.21875
8.26,1769235745.234375
0.39,1769235745.25
-7.47,1769235745.265625
-15.57,1769235745.28125
-24.37,1769235745.296875
-34.35,1769235745.3125
-45.71,1769235745.328125
-58.18,1769235745.34375
-70.61,1769235745.359375
-80.92,1769235745.375
-86.33,1769235745.390625
-84.09,1769235745.40625
-72.44,1769235745.421875
-51.43,1769235745.4375
-23.08,1769235745.453125
9.14,1769235745.46875
41.32,1769235745.484375
70.26,1769235745.5
94.09,1769235745.515625
112.24,1769235745.53125
125.06,1769235745.546875
133.21,1769235745.5625
137.47,1769235745.578125
138.69,1769235745.59375
137.91,1769235745.609375
136.33,1769235745.625
134.92,1769235745.640625
133.99,1769235745.65625
132.96,1769235745.671875
130.69,1769235745.6875
126.18,1769235745.703125
119.48,1769235745.71875
112.05,1769235745.734375
106.38,1769235745.75
104.77,1769235745.765625
107.96,1769235745.78125
114.16,1769235745.796875
119.29,1769235745.8125
118.2,1769235745.828125
106.53,1769235745.84375
82.2,1769235745.859375
45.95,1769235745.875
1.04,1769235745.890625
-47.44,1769235745.90625
-93.45,1769235745.921875
-130.81,1769235745.9375
-154.61,1769235745.953125
-162.99,1769235745.96875
-158.57,1769235745.984375
-148.34,1769235746.0
-141.4,1769235746.015625
-145.04,1769235746.03125
-161.16,1769235746.046875
-185.04,1769235746.0625
-207.47,1769235746.078125
-219.22,1769235746.09375
-215.39,1769235746.109375
-197.14,1769235746.125
-170.2,1769235746.140625
-141.2,1769235746.15625
-114.43,1769235746.171875
-90.79,1769235746.1875
-69.17,1769235746.203125
-48.77,1769235746.21875
-30.62,1769235746.234375
-17.15,1769235746.25
-10.5,1769235746.265625
-10.73,1769235746.28125
-15.27,1769235746.296875
-20.0,1769235746.3125
-21.13,1769235746.328125
-16.96,1769235746.34375
-8.44,1769235746.359375
1.52,1769235746.375
9.58,1769235746.390625
13.44,1769235746.40625
12.63,1769235746.421875
8.44,1769235746.4375
3.02,1769235746.453125
-1.65,1769235746.46875
-4.55,1769235746.484375
-6.01,1769235746.5
-7.32,1769235746.515625
-10.16,1769235746.53125
-15.84,1769235746.546875
-24.88,1769235746.5625
-36.97,1769235746.578125
-51.09,1769235746.59375
-65.84,1769235746.609375
-79.49,1769235746.625
-90.07,1769235746.640625
-95.37,1769235746.65625
-93.33,1769235746.671875
-82.71,1769235746.6875
-63.7,1769235746.703125
-38.29,1769235746.71875
-9.86,1769235746.734375
17.77,1769235746.75
41.48,1769235746.765625
59.68,1769235746.78125
72.48,1769235746.796875
81.07,1769235746.8125
86.76,1769235746.828125
90.29,1769235746.84375
91.54,1769235746.859375
89.98,1769235746.875
85.23,1769235746.890625
77.57,1769235746.90625
68.04,1769235746.921875
58.16,1769235746.9375
49.39,1769235746.953125
42.64,1769235746.96875
38.13,1769235746.984375
35.41,1769235747.0
33.63,1769235747.015625
31.88,1769235747.03125
29.43,1769235747.046875
25.83,1769235747.0625
20.9,1769235747.078125
14.7,1769235747.09375
7.43,1769235747.109375
-0.56,1769235747.125
-8.92,1769235747.140625
-17.38,1769235747.15625
-25.87,1769235747.171875
-34.61,1769235747.1875
-44.14,1769235747.203125
-55.09,1769235747.21875
-67.83,1769235747.234375
-81.96,1769235747.25
-95.94,1769235747.265625
-107.04,1769235747.28125
-111.93,1769235747.296875
-107.77,1769235747.3125
-93.25,1769235747.328125
-69.32,1769235747.34375
-39.09,1769235747.359375
-6.86,1769235747.375
23.14,1769235747.390625
48.09,1769235747.40625
66.98,1769235747.421875
80.45,1769235747.4375
89.92,1769235747.453125
96.69,1769235747.46875
101.39,1769235747.484375
103.96,1769235747.5
104.09,1769235747.515625
101.66,1769235747.53125
97.06,1769235747.546875
91.02,1769235747.5625
84.43,1769235747.578125
77.9,1769235747.59375
71.78,1769235747.609375
66.17,1769235747.625
61.17,1769235747.640625
56.95,1769235747.65625
53.65,1769235747.671875
51.2,1769235747.6875
49.14,1769235747.703125
46.7,1769235747.71875
43.06,1769235747.734375
37.65,1769235747.75
30.42,1769235747.765625
21.72,1769235747.78125
12.18,1769235747.796875
2.42,1769235747.8125
-7.16,1769235747.828125
-16.46,1769235747.84375
-25.63,1769235747.859375
