PPG GREEN,time
2098746.0,1769235672.163
2100390.0,1769235672.202
2102216.0,1769235672.242
2103381.0,1769235672.284
2100050.0,1769235672.321
2095213.0,1769235672.362
2091214.0,1769235672.402
2088533.0,1769235672.441
2086733.0,1769235672.482
2086744.0,1769235672.523
2087442.0,1769235672.563
2088043.0,1769235672.602
2088184.0,1769235672.644
2088621.0,1769235672.681
2089608.0,1769235672.721
2091373.0,1769235672.763
2092807.0,1769235672.802
2095030.0,1769235672.842
2097427.0,1769235672.883
2098481.0,1769235672.922
2095879.0,1769235672.963
2091506.0,1769235673.002
2088731.0,1769235673.041
2087119.0,1769235673.081
2086738.0,1769235673.123
2087575.0,1769235673.163
2088897.0,1769235673.202
2089630.0,1769235673.244
2090214.0,1769235673.283
2091077.0,1769235673.323
2092215.0,1769235673.362
2094250.0,1769235673.401
2096243.0,1769235673.441
2098191.0,1769235673.483
2100870.0,1769235673.521
2099986.0,1769235673.562
2096686.0,1769235673.603
2093309.0,1769235673.642
2091306.0,1769235673.682
2090699.0,1769235673.724
2090858.0,1769235673.763
2092166.0,1769235673.803
2093624.0,1769235673.844
2094197.0,1769235673.881
2095258.0,1769235673.922
2096606.0,1769235673.964
2098391.0,1769235674.002
2100240.0,1769235674.042
2102684.0,1769235674.084
2105391.0,1769235674.123
2107345.0,1769235674.164
2106293.0,1769235674.205
2103133.0,1769235674.242
2100625.0,1769235674.282
2099083.0,1769235674.323
2098649.0,1769235674.363
2099717.0,1769235674.403
2100905.0,1769235674.444
2102411.0,1769235674.483
2103177.0,1769235674.523
2104402.0,1769235674.565
2106030.0,1769235674.602
2107913.0,1769235674.642
2109849.0,1769235674.683
2112136.0,1769235674.723
2114821.0,1769235674.764
2117132.0,1769235674.804
2117415.0,1769235674.844
2114501.0,1769235674.884
2111835.0,1769235674.923
2110635.0,1769235674.963
2110943.0,1769235675.044
2110339.0,1769235675.003
2112182.0,1769235675.083
2113531.0,1769235675.123
2115928.0,1769235675.204
2114710.0,1769235675.165
2116951.0,1769235675.244
2118982.0,1769235675.283
2120638.0,1769235675.322
2122868.0,1769235675.363
2125327.0,1769235675.404
2127549.0,1769235675.443
2127192.0,1769235675.484
2124841.0,1769235675.525
2122945.0,1769235675.565
2121903.0,1769235675.604
2122037.0,1769235675.643
2123139.0,1769235675.683
2124664.0,1769235675.723
2125801.0,1769235675.765
2126812.0,1769235675.804
2127490.0,1769235675.844
2128978.0,1769235675.885
2130398.0,1769235675.924
2132540.0,1769235675.965
2134287.0,1769235676.005
2136328.0,1769235676.045
2136565.0,1769235676.083
2133496.0,1769235676.124
2131374.0,1769235676.164
2130223.0,1769235676.203
2130265.0,1769235676.245
2130768.0,1769235676.284
2132058.0,1769235676.324
2133420.0,1769235676.366
2134075.0,1769235676.405
2135190.0,1769235676.443
2136322.0,1769235676.484
2137938.0,1769235676.523
2139836.0,1769235676.564
2142095.0,1769235676.605
2143933.0,1769235676.644
2143665.0,1769235676.684
2140605.0,1769235676.726
2137736.0,1769235676.764
2135987.0,1769235676.803
2134884.0,1769235676.845
2134659.0,1769235676.884
2135510.0,1769235676.924
2136401.0,1769235676.966
2136906.0,1769235677.004
2137345.0,1769235677.044
2138566.0,1769235677.085
2139559.0,1769235677.124
2141033.0,1769235677.165
2142537.0,1769235677.206
2144561.0,1769235677.245
2145560.0,1769235677.283
2142749.0,1769235677.325
2139602.0,1769235677.364
2137340.0,1769235677.404
2136034.0,1769235677.445
2135457.0,1769235677.485
2135830.0,1769235677.525
2136704.0,1769235677.567
2137145.0,1769235677.604
2137464.0,1769235677.645
2138027.0,1769235677.686
2138892.0,1769235677.725
2140134.0,1769235677.766
2143141.0,1769235677.844
2141478.0,1769235677.805
2144140.0,1769235677.884
2142256.0,1769235677.925
2135938.0,1769235678.005
2138641.0,1769235677.965
2134442.0,1769235678.046
2133587.0,1769235678.085
2134033.0,1769235678.126
2134571.0,1769235678.166
2134402.0,1769235678.204
2134118.0,1769235678.243
2133860.0,1769235678.282
2134144.0,1769235678.321
2135297.0,1769235678.36
2136057.0,1769235678.399
2137160.0,1769235678.438
2135850.0,1769235678.477
2132035.0,1769235678.516
2128246.0,1769235678.555
2125389.0,1769235678.594
2124219.0,1769235678.633
2124240.0,1769235678.672
2124181.0,1769235678.711
2123884.0,1769235678.75
2123135.0,1769235678.789
2122748.0,1769235678.828
2122852.0,1769235678.867
2123444.0,1769235678.906
2124512.0,1769235678.945
2126008.0,1769235678.984
2126484.0,1769235679.023
2123852.0,1769235679.062
2119498.0,1769235679.101
2116030.0,1769235679.14
2113716.0,1769235679.179
2111268.0,1769235679.218
2110688.0,1769235679.257
2111138.0,1769235679.296
2110786.0,1769235679.335
2110220.0,1769235679.374
2110425.0,1769235679.413
2110585.0,1769235679.452
2111742.0,1769235679.491
2113010.0,1769235679.53
2114380.0,1769235679.569
2114058.0,1769235679.608
2111227.0,1769235679.647
2107583.0,1769235679.686
2105603.0,1769235679.725
2104902.0,1769235679.764
2104584.0,1769235679.803
2104284.0,1769235679.842
2103112.0,1769235679.881
2100517.0,1769235679.921
2097244.0,1769235679.961
2093038.0,1769235680.001
2091214.0,1769235680.041
2088321.0,1769235680.081
2084808.0,1769235680.121
2082429.0,1769235680.161
2082570.0,1769235680.201
2079638.0,1769235680.241
2076050.0,1769235680.281
2073425.0,1769235680.321
2069165.0,1769235680.361
2067155.0,1769235680.401
2067472.0,1769235680.441
2066903.0,1769235680.481
2066410.0,1769235680.521
2065454.0,1769235680.561
2064745.0,1769235680.601
2064590.0,1769235680.641
2064689.0,1769235680.681
2065113.0,1769235680.721
2066288.0,1769235680.761
2067643.0,1769235680.801
2067117.0,1769235680.841
2065376.0,1769235680.881
2063343.0,1769235680.921
2062533.0,1769235680.961
2061581.0,1769235681.001
2061091.0,1769235681.041
2060809.0,1769235681.081
2060390.0,1769235681.121
2060306.0,1769235681.161
2061985.0,1769235681.201
2065198.0,1769235681.241
2069769.0,1769235681.281
2073859.0,1769235681.321
2078580.0,1769235681.361
2082143.0,1769235681.401
2083836.0,1769235681.441
2083806.0,1769235681.481
2084175.0,1769235681.521
2086818.0,1769235681.561
2090685.0,1769235681.601
2095744.0,1769235681.641
2100627.0,1769235681.681
2103733.0,1769235681.721
2104712.0,1769235681.761
2105101.0,1769235681.801
2106359.0,1769235681.841
2107501.0,1769235681.881
2110159.0,1769235681.921
2114590.0,1769235681.961
2119930.0,1769235682.001
2123266.0,1769235682.041
2125362.0,1769235682.081
2126830.0,1769235682.121
2129362.0,1769235682.161
2131594.0,1769235682.201
2134951.0,1769235682.241
2138693.0,1769235682.281
2142619.0,1769235682.321
2145733.0,1769235682.361
2149236.0,1769235682.401
2152131.0,1769235682.441
2155550.0,1769235682.481
2158982.0,1769235682.521
2162024.0,1769235682.561
2164221.0,1769235682.601
2165340.0,1769235682.641
2165021.0,1769235682.681
2165587.0,1769235682.721
2166725.0,1769235682.761
2167302.0,1769235682.801
2168653.0,1769235682.841
2170643.0,1769235682.881
2172201.0,1769235682.921
2174232.0,1769235682.961
2176251.0,1769235683.001
2178324.0,1769235683.041
2180689.0,1769235683.081
2182934.0,1769235683.121
2185310.0,1769235683.161
2187993.0,1769235683.201
2189625.0,1769235683.241
2189398.0,1769235683.281
2190366.0,1769235683.321
2192031.0,1769235683.361
2193379.0,1769235683.401
2194859.0,1769235683.441
2196903.0,1769235683.481
2198301.0,1769235683.521
2198878.0,1769235683.561
2199648.0,1769235683.601
2199808.0,1769235683.641
2200311.0,1769235683.681
2200898.0,1769235683.721
2200976.0,1769235683.761
2200186.0,1769235683.801
2197198.0,1769235683.841
2190369.0,1769235683.881
2182173.0,1769235683.921
2175773.0,1769235683.961
2171788.0,1769235684.001
2168795.0,1769235684.041
2167036.0,1769235684.081
2167173.0,1769235684.121
2169538.0,1769235684.161
2173611.0,1769235684.201
2178165.0,1769235684.241
2182165.0,1769235684.281
2184897.0,1769235684.321
2186413.0,1769235684.361
2186896.0,1769235684.401
2189031.0,1769235684.441
2191721.0,1769235684.481
2193619.0,1769235684.521
2195316.0,1769235684.561
2197916.0,1769235684.601
2200594.0,1769235684.641
2203900.0,1769235684.681
2207301.0,1769235684.721
2209838.0,1769235684.761
2211492.0,1769235684.801
2211426.0,1769235684.841
2211112.0,1769235684.881
2211474.0,1769235684.921
2213213.0,1769235684.961
2215659.0,1769235685.001
2216574.0,1769235685.041
2215874.0,1769235685.081
2215561.0,1769235685.121
2216887.0,1769235685.161
2218650.0,1769235685.201
2220760.0,1769235685.241
2226106.0,1769235685.321
2223625.0,1769235685.281
2229618.0,1769235685.361
2233085.0,1769235685.401
2240366.0,1769235685.481
2242927.0,1769235685.521
2236827.0,1769235685.441
2245180.0,1769235685.561
2243321.0,1769235685.641
2244930.0,1769235685.601
2240755.0,1769235685.721
2241325.0,1769235685.681
2240928.0,1769235685.761
2241885.0,1769235685.801
2243747.0,1769235685.841
2245958.0,1769235685.881
2247443.0,1769235685.921
2251754.0,1769235686.001
2257371.0,1769235686.081
2254657.0,1769235686.041
2249102.0,1769235685.961
2259915.0,1769235686.121
2259763.0,1769235686.201
2261028.0,1769235686.161
2257763.0,1769235686.281
2257185.0,1769235686.321
2258883.0,1769235686.241
2257438.0,1769235686.361
2258807.0,1769235686.441
2257749.0,1769235686.401
2261892.0,1769235686.521
2260569.0,1769235686.481
2265674.0,1769235686.601
2270114.0,1769235686.681
2270468.0,1769235686.721
2263612.0,1769235686.561
2268140.0,1769235686.641
2268641.0,1769235686.761
2266691.0,1769235686.801
2265597.0,1769235686.841
2265130.0,1769235686.881
2264926.0,1769235686.921
2266050.0,1769235686.961
2266937.0,1769235687.001
2267630.0,1769235687.041
2268432.0,1769235687.081
2269917.0,1769235687.121
2271248.0,1769235687.161
2273060.0,1769235687.201
2275535.0,1769235687.241
2275247.0,1769235687.281
2272617.0,1769235687.321
2269611.0,1769235687.361
2267581.0,1769235687.401
2266645.0,1769235687.441
2265726.0,1769235687.481
2265681.0,1769235687.521
2266509.0,1769235687.561
2267050.0,1769235687.601
2266786.0,1769235687.641
2267163.0,1769235687.681
2267466.0,1769235687.721
2268095.0,1769235687.761
2268986.0,1769235687.801
2270402.0,1769235687.841
2269878.0,1769235687.881
2267725.0,1769235687.921
2266992.0,1769235687.961
2267040.0,1769235688.001
2267699.0,1769235688.041
2269524.0,1769235688.081
2270325.0,1769235688.121
2270536.0,1769235688.161
2270211.0,1769235688.201
2269613.0,1769235688.241
2269240.0,1769235688.281
2270305.0,1769235688.321
2271677.0,1769235688.361
2273479.0,1769235688.401
2275870.0,1769235688.441
2274833.0,1769235688.481
2271109.0,1769235688.521
2268206.0,1769235688.561
2266254.0,1769235688.601
2265287.0,1769235688.641
2265799.0,1769235688.681
2267134.0,1769235688.721
2268715.0,1769235688.761
2270014.0,1769235688.801
2271962.0,1769235688.841
2275944.0,1769235688.881
2279058.0,1769235688.921
2281301.0,1769235688.961
2281552.0,1769235689.001
2277382.0,1769235689.041
2269938.0,1769235689.081
2262692.0,1769235689.121
2256328.0,1769235689.161
2253068.0,1769235689.201
2252764.0,1769235689.241
2253450.0,1769235689.281
2254488.0,1769235689.321
2254764.0,1769235689.361
2255836.0,1769235689.401
2256734.0,1769235689.441
2258597.0,1769235689.481
2260611.0,1769235689.521
2262567.0,1769235689.561
2260440.0,1769235689.601
2254952.0,1769235689.641
2249308.0,1769235689.681
2245041.0,1769235689.721
2241616.0,1769235689.761
2239956.0,1769235689.801
2239192.0,1769235689.841
2239447.0,1769235689.881
2239434.0,1769235689.921
2239814.0,1769235689.961
2239504.0,1769235690.001
2239781.0,1769235690.041
2239843.0,1769235690.081
2239734.0,1769235690.121
2238648.0,1769235690.161
2232632.0,1769235690.257
2226052.0,1769235690.298
2219777.0,1769235690.337
2215304.0,1769235690.377
2211751.0,1769235690.418
2210202.0,1769235690.457
2209663.0,1769235690.497
2208384.0,1769235690.538
2207657.0,1769235690.578
2207062.0,1769235690.617
2207284.0,1769235690.658
2207830.0,1769235690.697
2208376.0,1769235690.737
2207482.0,1769235690.779
2201905.0,1769235690.817
2195307.0,1769235690.857
2189814.0,1769235690.898
2185482.0,1769235690.937
2182890.0,1769235690.978
2181596.0,1769235691.018
2180903.0,1769235691.058
2179875.0,1769235691.098
2179371.0,1769235691.139
2178899.0,1769235691.178
2179016.0,1769235691.218
2180008.0,1769235691.259
2181410.0,1769235691.298
2179646.0,1769235691.338
2174288.0,1769235691.38
2168308.0,1769235691.418
2162988.0,1769235691.458
2158192.0,1769235691.499
2154535.0,1769235691.538
2152140.0,1769235691.579
2151138.0,1769235691.619
2151500.0,1769235691.658
2151852.0,1769235691.698
2153721.0,1769235691.739
2156018.0,1769235691.779
2159345.0,1769235691.818
2162573.0,1769235691.859
2160605.0,1769235691.898
2151437.0,1769235691.938
2138524.0,1769235691.98
2125513.0,1769235692.018
2114720.0,1769235692.059
2107889.0,1769235692.1
2103806.0,1769235692.139
2105189.0,1769235692.179
2112585.0,1769235692.22
2115252.0,1769235692.259
2115101.0,1769235692.299
2116272.0,1769235692.34
2118050.0,1769235692.38
2120662.0,1769235692.419
2121019.0,1769235692.46
2117879.0,1769235692.499
2114626.0,1769235692.539
2112609.0,1769235692.581
2112382.0,1769235692.619
2114217.0,1769235692.659
2117484.0,1769235692.7
2120840.0,1769235692.739
2123351.0,1769235692.78
2126082.0,1769235692.821
2129318.0,1769235692.86
2132564.0,1769235692.9
2135923.0,1769235692.941
2138688.0,1769235692.981
2138934.0,1769235693.021
2135387.0,1769235693.062
2131514.0,1769235693.101
2127857.0,1769235693.139
2125700.0,1769235693.181
2125745.0,1769235693.22
2126925.0,1769235693.26
2127383.0,1769235693.301
2127865.0,1769235693.341
2128362.0,1769235693.382
2130123.0,1769235693.42
2131821.0,1769235693.459
2134605.0,1769235693.5
2136134.0,1769235693.541
2134663.0,1769235693.581
2130579.0,1769235693.62
2127388.0,1769235693.662
2125263.0,1769235693.701
2124352.0,1769235693.741
2125199.0,1769235693.781
2126566.0,1769235693.82
2128151.0,1769235693.859
2129126.0,1769235693.9
2130732.0,1769235693.939
2133048.0,1769235693.979
2135163.0,1769235694.02
2137870.0,1769235694.06
2139276.0,1769235694.1
2136655.0,1769235694.141
2132713.0,1769235694.18
2129434.0,1769235694.22
2127240.0,1769235694.261
2126330.0,1769235694.301
2126805.0,1769235694.341
2127646.0,1769235694.383
2128679.0,1769235694.421
2127875.0,1769235694.462
2126962.0,1769235694.503
2125691.0,1769235694.54
2125462.0,1769235694.581
2125730.0,1769235694.621
2125566.0,1769235694.661
2121110.0,1769235694.701
2115696.0,1769235694.742
2110840.0,1769235694.782
2106524.0,1769235694.822
2104021.0,1769235694.861
2103400.0,1769235694.9
2103906.0,1769235694.941
2104251.0,1769235694.983
2104634.0,1769235695.021
2106064.0,1769235695.061
2106949.0,1769235695.103
2108618.0,1769235695.142
2110386.0,1769235695.183
2111149.0,1769235695.221
2107992.0,1769235695.261
2103159.0,1769235695.301
2096351.0,1769235695.382
2099100.0,1769235695.342
2094946.0,1769235695.422
2095147.0,1769235695.463
2096121.0,1769235695.502
2097988.0,1769235695.582
2096962.0,1769235695.542
2099051.0,1769235695.621
2100803.0,1769235695.661
2102886.0,1769235695.702
2105400.0,1769235695.742
2107109.0,1769235695.783
2104964.0,1769235695.823
2100961.0,1769235695.862
2097188.0,1769235695.901
2094295.0,1769235695.942
2092714.0,1769235695.982
2092388.0,1769235696.021
2093450.0,1769235696.063
2094157.0,1769235696.102
2095289.0,1769235696.142
2096127.0,1769235696.184
2097908.0,1769235696.223
2099286.0,1769235696.261
2101424.0,1769235696.302
2103130.0,1769235696.341
2101104.0,1769235696.382
2097225.0,1769235696.423
2092962.0,1769235696.462
2089587.0,1769235696.502
2087418.0,1769235696.543
2086953.0,1769235696.583
2087350.0,1769235696.623
2087793.0,1769235696.664
2088448.0,1769235696.701
2089152.0,1769235696.741
2090192.0,1769235696.783
2092112.0,1769235696.822
2094395.0,1769235696.862
2097326.0,1769235696.904
2097457.0,1769235696.943
2094882.0,1769235696.984
2092393.0,1769235697.022
2090890.0,1769235697.062
2090318.0,1769235697.102
2091119.0,1769235697.143
2092672.0,1769235697.183
2093580.0,1769235697.223
2094248.0,1769235697.264
2095115.0,1769235697.303
2096332.0,1769235697.343
2098334.0,1769235697.383
2100459.0,1769235697.422
2102324.0,1769235697.462
2102726.0,1769235697.503
2099503.0,1769235697.542
2095327.0,1769235697.583
2091962.0,1769235697.624
2089007.0,1769235697.663
2087827.0,1769235697.704
2088492.0,1769235697.743
2089260.0,1769235697.783
2090313.0,1769235697.822
2091098.0,1769235697.863
2092476.0,1769235697.903
2094066.0,1769235697.943
2095700.0,1769235697.985
2097566.0,1769235698.023
2099423.0,1769235698.064
2097652.0,1769235698.103
2094045.0,1769235698.142
2091106.0,1769235698.183
2088735.0,1769235698.224
2087889.0,1769235698.263
2088148.0,1769235698.303
2089326.0,1769235698.344
2090534.0,1769235698.384
2091672.0,1769235698.424
2093028.0,1769235698.463
2094505.0,1769235698.502
2096350.0,1769235698.543
2098534.0,1769235698.584
2100721.0,1769235698.623
2101048.0,1769235698.663
2097608.0,1769235698.705
2094148.0,1769235698.744
2091551.0,1769235698.783
2089640.0,1769235698.823
2089403.0,1769235698.863
2090365.0,1769235698.903
2091369.0,1769235698.944
2091745.0,1769235698.984
2092465.0,1769235699.023
2094152.0,1769235699.064
2096075.0,1769235699.101
2098675.0,1769235699.141
2102201.0,1769235699.184
2104903.0,1769235699.223
2103510.0,1769235699.262
2101182.0,1769235699.304
2099615.0,1769235699.343
2099013.0,1769235699.384
2099494.0,1769235699.424
2101110.0,1769235699.464
2103020.0,1769235699.504
2104501.0,1769235699.545
2105721.0,1769235699.585
2107256.0,1769235699.625
2109362.0,1769235699.664
2112048.0,1769235699.703
2114534.0,1769235699.743
2116537.0,1769235699.785
2116002.0,1769235699.824
2112397.0,1769235699.864
2108201.0,1769235699.905
2105077.0,1769235699.945
2102720.0,1769235699.984
2101423.0,1769235700.024
2101761.0,1769235700.063
2102085.0,1769235700.104
2102126.0,1769235700.145
2102620.0,1769235700.185
2102911.0,1769235700.224
2103829.0,1769235700.266
2104837.0,1769235700.305
2106225.0,1769235700.343
2107166.0,1769235700.385
2104338.0,1769235700.424
2100226.0,1769235700.464
2096145.0,1769235700.505
2093291.0,1769235700.544
2090963.0,1769235700.585
2090536.0,1769235700.626
2090941.0,1769235700.665
2091037.0,1769235700.703
2091147.0,1769235700.745
2091344.0,1769235700.785
2091984.0,1769235700.824
2092336.0,1769235700.865
2093041.0,1769235700.905
2093700.0,1769235700.945
2091950.0,1769235700.987
2087418.0,1769235701.023
2083559.0,1769235701.064
2080818.0,1769235701.105
2079289.0,1769235701.144
2079505.0,1769235701.185
2080998.0,1769235701.226
2082595.0,1769235701.265
2085075.0,1769235701.347
2083567.0,1769235701.305
2087211.0,1769235701.384
2089829.0,1769235701.424
2092092.0,1769235701.465
2094384.0,1769235701.504
2096076.0,1769235701.544
2093733.0,1769235701.586
2089642.0,1769235701.625
2085883.0,1769235701.665
2083839.0,1769235701.706
2082180.0,1769235701.746
2082244.0,1769235701.784
2083286.0,1769235701.825
2084551.0,1769235701.864
2085636.0,1769235701.905
2087536.0,1769235701.946
2089674.0,1769235701.986
2092402.0,1769235702.025
2095035.0,1769235702.067
2096743.0,1769235702.106
2095707.0,1769235702.144
2091107.0,1769235702.186
2086718.0,1769235702.224
2083452.0,1769235702.257
2081773.0,1769235702.298
2081112.0,1769235702.337
2081372.0,1769235702.377
2081309.0,1769235702.418
2081395.0,1769235702.457
2082005.0,1769235702.497
2082778.0,1769235702.538
2083970.0,1769235702.578
2085909.0,1769235702.617
2087345.0,1769235702.658
2085930.0,1769235702.697
2081520.0,1769235702.735
2077433.0,1769235702.777
2074303.0,1769235702.816
2072271.0,1769235702.856
2072385.0,1769235702.897
2072977.0,1769235702.937
2074139.0,1769235702.978
2075084.0,1769235703.018
2076076.0,1769235703.057
2077451.0,1769235703.095
2079287.0,1769235703.137
2081568.0,1769235703.177
2083774.0,1769235703.216
2084847.0,1769235703.257
2082639.0,1769235703.297
2078922.0,1769235703.337
2076660.0,1769235703.379
2075108.0,1769235703.418
2075206.0,1769235703.456
2075777.0,1769235703.497
2077173.0,1769235703.536
2078429.0,1769235703.577
2079351.0,1769235703.618
2080552.0,1769235703.657
2082550.0,1769235703.697
2085625.0,1769235703.739
2088861.0,1769235703.777
2090510.0,1769235703.816
2089288.0,1769235703.857
2088499.0,1769235703.897
2088507.0,1769235703.937
2090579.0,1769235704.017
2088877.0,1769235703.979
2092971.0,1769235704.058
2095284.0,1769235704.096
2096863.0,1769235704.136
2098102.0,1769235704.177
2100043.0,1769235704.217
2102456.0,1769235704.256
2107070.0,1769235704.338
2105825.0,1769235704.417
2106694.0,1769235704.378
2106188.0,1769235704.458
2107388.0,1769235704.498
2110189.0,1769235704.538
2114076.0,1769235704.58
2117917.0,1769235704.616
2104905.0,1769235704.296
2121422.0,1769235704.657
2127054.0,1769235704.737
2124241.0,1769235704.698
2129930.0,1769235704.778
2132492.0,1769235704.819
2134282.0,1769235704.858
2133976.0,1769235704.898
2130701.0,1769235704.937
2127362.0,1769235704.977
2124583.0,1769235705.017
2122944.0,1769235705.058
2122403.0,1769235705.097
2123012.0,1769235705.138
2123660.0,1769235705.18
2124255.0,1769235705.218
2125188.0,1769235705.259
2126635.0,1769235705.298
2127770.0,1769235705.337
2129691.0,1769235705.378
2130612.0,1769235705.418
2128173.0,1769235705.458
2124474.0,1769235705.498
2120883.0,1769235705.539
2118670.0,1769235705.579
2117722.0,1769235705.619
2118115.0,1769235705.658
2119052.0,1769235705.697
2120249.0,1769235705.737
2120575.0,1769235705.779
2121627.0,1769235705.818
2123230.0,1769235705.858
2125109.0,1769235705.9
2127133.0,1769235705.939
2127139.0,1769235705.978
2124366.0,1769235706.018
2120773.0,1769235706.057
2118529.0,1769235706.098
2117293.0,1769235706.139
2117445.0,1769235706.179
2118412.0,1769235706.218
2119404.0,1769235706.26
2120283.0,1769235706.299
2121272.0,1769235706.337
2122318.0,1769235706.379
2124139.0,1769235706.418
2125949.0,1769235706.458
2127676.0,1769235706.499
2125634.0,1769235706.538
2122218.0,1769235706.579
2119234.0,1769235706.62
2116960.0,1769235706.656
2115670.0,1769235706.696
2115990.0,1769235706.737
2116946.0,1769235706.778
2118504.0,1769235706.818
2120003.0,1769235706.858
2121728.0,1769235706.897
2124072.0,1769235706.938
2126893.0,1769235706.98
2129619.0,1769235707.018
2130467.0,1769235707.058
2127124.0,1769235707.1
2121788.0,1769235707.139
2116087.0,1769235707.18
2111264.0,1769235707.221
2108414.0,1769235707.258
2107878.0,1769235707.298
2108143.0,1769235707.339
2108902.0,1769235707.379
2109980.0,1769235707.419
2110940.0,1769235707.46
2112193.0,1769235707.499
2113307.0,1769235707.54
2114830.0,1769235707.581
2116542.0,1769235707.618
2114970.0,1769235707.658
2110859.0,1769235707.699
2106237.0,1769235707.739
2102731.0,1769235707.78
2099835.0,1769235707.82
2098759.0,1769235707.86
2099160.0,1769235707.9
2100361.0,1769235707.939
2101566.0,1769235707.979
2102924.0,1769235708.019
2104710.0,1769235708.06
2106590.0,1769235708.099
2108747.0,1769235708.139
2111235.0,1769235708.181
2113431.0,1769235708.22
2112322.0,1769235708.26
2109321.0,1769235708.299
2106647.0,1769235708.338
2105137.0,1769235708.379
2104353.0,1769235708.42
2104936.0,1769235708.459
2106396.0,1769235708.5
2107716.0,1769235708.541
2108794.0,1769235708.581
2110389.0,1769235708.62
2111919.0,1769235708.659
2114276.0,1769235708.699
2116695.0,1769235708.739
2118631.0,1769235708.781
2118297.0,1769235708.82
2115544.0,1769235708.86
2113475.0,1769235708.901
2112473.0,1769235708.94
2112355.0,1769235708.979
2113010.0,1769235709.02
2114802.0,1769235709.059
2115726.0,1769235709.099
2117049.0,1769235709.141
2118224.0,1769235709.181
2119566.0,1769235709.218
2121506.0,1769235709.26
2123043.0,1769235709.299
2125285.0,1769235709.339
2124520.0,1769235709.381
2121669.0,1769235709.419
2119049.0,1769235709.459
2117031.0,1769235709.501
2115638.0,1769235709.54
2115740.0,1769235709.581
2116524.0,1769235709.622
2117243.0,1769235709.661
2118146.0,1769235709.699
2119215.0,1769235709.74
2120480.0,1769235709.78
2122831.0,1769235709.82
2125156.0,1769235709.861
2127501.0,1769235709.9
2128817.0,1769235709.941
2127544.0,1769235709.983
2125024.0,1769235710.019
2123221.0,1769235710.059
2122092.0,1769235710.101
2121933.0,1769235710.14
2123464.0,1769235710.181
2125582.0,1769235710.221
2127423.0,1769235710.261
2129447.0,1769235710.301
2131605.0,1769235710.342
2134347.0,1769235710.38
2137283.0,1769235710.42
2140219.0,1769235710.461
2143456.0,1769235710.5
2144308.0,1769235710.54
2142277.0,1769235710.582
2140406.0,1769235710.621
2138942.0,1769235710.661
2137867.0,1769235710.702
2138028.0,1769235710.74
2138632.0,1769235710.781
2139013.0,1769235710.821
2139531.0,1769235710.86
2140507.0,1769235710.901
2141201.0,1769235710.942
2142815.0,1769235710.982
2144367.0,1769235711.021
2146035.0,1769235711.063
2147394.0,1769235711.1
2145696.0,1769235711.14
2142937.0,1769235711.182
2141064.0,1769235711.221
2139722.0,1769235711.261
2139783.0,1769235711.302
2140565.0,1769235711.341
2141857.0,1769235711.382
2143291.0,1769235711.423
2144192.0,1769235711.46
2146936.0,1769235711.541
2145218.0,1769235711.5
2148606.0,1769235711.581
2150934.0,1769235711.621
2152707.0,1769235711.662
2151533.0,1769235711.701
2148594.0,1769235711.742
2146316.0,1769235711.784
2145253.0,1769235711.822
2144639.0,1769235711.86
2145455.0,1769235711.901
2146636.0,1769235711.941
2148356.0,1769235711.982
2149692.0,1769235712.022
2150826.0,1769235712.061
2152456.0,1769235712.102
2153921.0,1769235712.143
2155893.0,1769235712.183
2157938.0,1769235712.22
2158753.0,1769235712.262
2156588.0,1769235712.301
2153887.0,1769235712.341
2152236.0,1769235712.383
2150951.0,1769235712.422
2150676.0,1769235712.462
2151184.0,1769235712.503
2152188.0,1769235712.542
2152756.0,1769235712.581
2153450.0,1769235712.622
2154218.0,1769235712.661
2155967.0,1769235712.701
2158012.0,1769235712.743
2160746.0,1769235712.783
2163294.0,1769235712.822
2163343.0,1769235712.864
2161796.0,1769235712.901
2160880.0,1769235712.941
2161221.0,1769235712.983
2161919.0,1769235713.021
2163357.0,1769235713.062
2165416.0,1769235713.103
2167440.0,1769235713.142
2168841.0,1769235713.183
2170183.0,1769235713.224
2171522.0,1769235713.261
2172548.0,1769235713.301
2174238.0,1769235713.342
2175015.0,1769235713.378
2173436.0,1769235713.418
2169635.0,1769235713.459
2166220.0,1769235713.498
2164323.0,1769235713.538
2162519.0,1769235713.58
2161960.0,1769235713.618
2162560.0,1769235713.658
2163609.0,1769235713.699
2164777.0,1769235713.738
2166081.0,1769235713.779
2167893.0,1769235713.82
2169196.0,1769235713.859
2171238.0,1769235713.899
2173258.0,1769235713.94
2173874.0,1769235713.98
2171446.0,1769235714.019
2168832.0,1769235714.06
2166082.0,1769235714.1
2164250.0,1769235714.14
2163537.0,1769235714.183
2163761.0,1769235714.222
2164456.0,1769235714.266
2165382.0,1769235714.307
2165593.0,1769235714.346
2166112.0,1769235714.387
2166707.0,1769235714.427
2167718.0,1769235714.466
2169256.0,1769235714.506
2169841.0,1769235714.547
2167999.0,1769235714.587
2163710.0,1769235714.626
2160302.0,1769235714.667
2157597.0,1769235714.706
2155961.0,1769235714.746
2155751.0,1769235714.788
2156165.0,1769235714.827
2157075.0,1769235714.867
2157899.0,1769235714.908
2158170.0,1769235714.947
2159316.0,1769235714.988
2161429.0,1769235715.028
2163380.0,1769235715.067
2164726.0,1769235715.107
2162725.0,1769235715.149
2157963.0,1769235715.189
2152522.0,1769235715.228
2147037.0,1769235715.269
2142076.0,1769235715.309
2138432.0,1769235715.349
2136784.0,1769235715.389
2136709.0,1769235715.427
2137439.0,1769235715.468
2138294.0,1769235715.509
2140506.0,1769235715.548
2143361.0,1769235715.589
2146582.0,1769235715.63
2148843.0,1769235715.669
2148179.0,1769235715.709
2145857.0,1769235715.748
2143767.0,1769235715.788
2142654.0,1769235715.828
2142280.0,1769235715.869
2143037.0,1769235715.908
2144608.0,1769235715.949
2145951.0,1769235715.991
2146983.0,1769235716.029
2147458.0,1769235716.069
2148512.0,1769235716.109
2149542.0,1769235716.148
2150444.0,1769235716.189
2150679.0,1769235716.229
2147426.0,1769235716.269
2142238.0,1769235716.309
2138381.0,1769235716.35
2134622.0,1769235716.39
2132846.0,1769235716.43
2131894.0,1769235716.469
2132323.0,1769235716.508
2132544.0,1769235716.548
2132673.0,1769235716.59
2132401.0,1769235716.629
2133318.0,1769235716.669
2134484.0,1769235716.71
2135276.0,1769235716.75
2134916.0,1769235716.791
2131259.0,1769235716.829
2125651.0,1769235716.868
2121029.0,1769235716.908
2117289.0,1769235716.949
2114749.0,1769235716.989
2114427.0,1769235717.028
2114100.0,1769235717.07
2113403.0,1769235717.109
2112927.0,1769235717.149
2112430.0,1769235717.191
2112475.0,1769235717.23
2113130.0,1769235717.27
2113922.0,1769235717.309
2112944.0,1769235717.348
2108509.0,1769235717.389
2102809.0,1769235717.43
2097512.0,1769235717.469
2093555.0,1769235717.509
2090861.0,1769235717.551
2090239.0,1769235717.591
2089678.0,1769235717.63
2089674.0,1769235717.669
2089782.0,1769235717.709
2091136.0,1769235717.749
2092279.0,1769235717.791
2094434.0,1769235717.83
2097032.0,1769235717.87
2098412.0,1769235717.911
2096178.0,1769235717.95
2091884.0,1769235717.989
2087478.0,1769235718.03
2083415.0,1769235718.069
2079958.0,1769235718.109
2079001.0,1769235718.151
2079163.0,1769235718.19
2079399.0,1769235718.23
2078759.0,1769235718.271
2078464.0,1769235718.311
2076068.0,1769235718.349
2065681.0,1769235718.391
2063477.0,1769235718.429
2070404.0,1769235718.469
2076054.0,1769235718.511
2075759.0,1769235718.55
2074438.0,1769235718.591
2074292.0,1769235718.632
2073534.0,1769235718.671
2072961.0,1769235718.709
2072480.0,1769235718.75
2072269.0,1769235718.79
2073076.0,1769235718.83
2074884.0,1769235718.871
2076834.0,1769235718.91
2079866.0,1769235718.951
2082960.0,1769235718.993
2084532.0,1769235719.029
2082734.0,1769235719.069
2079545.0,1769235719.111
2076995.0,1769235719.15
2075321.0,1769235719.191
2074543.0,1769235719.231
2075047.0,1769235719.271
2076475.0,1769235719.311
2077161.0,1769235719.352
2078367.0,1769235719.39
2080091.0,1769235719.43
2081681.0,1769235719.471
2083565.0,1769235719.51
2085880.0,1769235719.55
2087055.0,1769235719.592
2085288.0,1769235719.63
2081578.0,1769235719.671
2078750.0,1769235719.712
2076603.0,1769235719.751
2075355.0,1769235719.79
2075831.0,1769235719.831
2076688.0,1769235719.87
2077463.0,1769235719.91
2078453.0,1769235719.952
2079436.0,1769235719.991
2080725.0,1769235720.031
2082103.0,1769235720.072
2083675.0,1769235720.111
2085093.0,1769235720.15
2083456.0,1769235720.192
2079524.0,1769235720.23
2075453.0,1769235720.27
2072764.0,1769235720.312
2070687.0,1769235720.351
2070238.0,1769235720.392
2070819.0,1769235720.433
2071812.0,1769235720.472
2072276.0,1769235720.51
2073208.0,1769235720.551
2074528.0,1769235720.591
2076088.0,1769235720.631
2080813.0,1769235720.711
2078334.0,1769235720.672
2082619.0,1769235720.751
2079956.0,1769235720.831
2082167.0,1769235720.793
2079445.0,1769235720.872
2079289.0,1769235720.913
2080079.0,1769235720.95
2082378.0,1769235720.991
2084666.0,1769235721.032
2086552.0,1769235721.071
2088310.0,1769235721.111
2090571.0,1769235721.152
2092557.0,1769235721.192
2094944.0,1769235721.232
2097608.0,1769235721.273
2100369.0,1769235721.31
2100475.0,1769235721.351
2098692.0,1769235721.393
2097452.0,1769235721.431
2097291.0,1769235721.471
2097646.0,1769235721.513
2098841.0,1769235721.552
2100776.0,1769235721.593
2102209.0,1769235721.633
2103822.0,1769235721.67
2105596.0,1769235721.711
2108038.0,1769235721.752
2110343.0,1769235721.792
2112965.0,1769235721.832
2115907.0,1769235721.873
2116963.0,1769235721.912
2115731.0,1769235721.952
2114341.0,1769235721.992
2114410.0,1769235722.031
2114519.0,1769235722.071
2115782.0,1769235722.112
2117653.0,1769235722.151
2119638.0,1769235722.192
2121782.0,1769235722.233
2123591.0,1769235722.272
2125372.0,1769235722.313
2127626.0,1769235722.354
2129791.0,1769235722.392
2132326.0,1769235722.431
2133268.0,1769235722.473
2131809.0,1769235722.512
2129459.0,1769235722.552
2128466.0,1769235722.594
2127749.0,1769235722.632
2128116.0,1769235722.673
2129483.0,1769235722.714
2130873.0,1769235722.751
2132829.0,1769235722.792
2134391.0,1769235722.833
2135679.0,1769235722.872
2137266.0,1769235722.912
2138843.0,1769235722.953
2140044.0,1769235722.993
2140376.0,1769235723.033
2135592.0,1769235723.074
2126492.0,1769235723.111
2121325.0,1769235723.152
2115822.0,1769235723.194
2120939.0,1769235723.232
2127439.0,1769235723.272
2130620.0,1769235723.314
2132232.0,1769235723.353
2133778.0,1769235723.394
2137145.0,1769235723.472
2135867.0,1769235723.432
2138548.0,1769235723.512
2140876.0,1769235723.553
2144088.0,1769235723.593
2145461.0,1769235723.633
2144422.0,1769235723.674
2143165.0,1769235723.713
2142642.0,1769235723.754
2142432.0,1769235723.793
2143014.0,1769235723.832
2143694.0,1769235723.872
2144913.0,1769235723.913
2146181.0,1769235723.953
2148295.0,1769235723.994
2150009.0,1769235724.034
2152127.0,1769235724.073
2154476.0,1769235724.114
2157035.0,1769235724.153
2158201.0,1769235724.193
2157306.0,1769235724.232
2155506.0,1769235724.274
2153759.0,1769235724.313
2152723.0,1769235724.353
2152645.0,1769235724.395
2153620.0,1769235724.434
2155033.0,1769235724.474
2156107.0,1769235724.513
2157071.0,1769235724.555
2158181.0,1769235724.596
2159622.0,1769235724.636
2160771.0,1769235724.672
2162695.0,1769235724.712
2164596.0,1769235724.754
2164276.0,1769235724.794
2162352.0,1769235724.833
2160140.0,1769235724.875
2158898.0,1769235724.914
2157885.0,1769235724.954
2157940.0,1769235724.994
2159001.0,1769235725.033
2159201.0,1769235725.073
2159641.0,1769235725.114
2160006.0,1769235725.153
2160602.0,1769235725.194
2161332.0,1769235725.235
2162610.0,1769235725.274
2163920.0,1769235725.314
2163457.0,1769235725.354
2160710.0,1769235725.394
2157715.0,1769235725.433
2155714.0,1769235725.474
2154753.0,1769235725.514
2154083.0,1769235725.554
2154507.0,1769235725.596
2155394.0,1769235725.634
2155391.0,1769235725.675
2156154.0,1769235725.714
2157206.0,1769235725.753
2158906.0,1769235725.794
2160807.0,1769235725.835
2162861.0,1769235725.874
2164028.0,1769235725.914
2162983.0,1769235725.955
2160594.0,1769235725.995
2158328.0,1769235726.033
2157169.0,1769235726.074
2156621.0,1769235726.113
2156757.0,1769235726.154
2157804.0,1769235726.196
2158493.0,1769235726.234
2159168.0,1769235726.269
2159958.0,1769235726.31
2160597.0,1769235726.349
2161977.0,1769235726.39
2163312.0,1769235726.43
2165253.0,1769235726.469
2165859.0,1769235726.509
2163785.0,1769235726.55
2161431.0,1769235726.59
2159544.0,1769235726.63
2158086.0,1769235726.671
2156913.0,1769235726.71
2157286.0,1769235726.747
2157993.0,1769235726.789
2158783.0,1769235726.828
2157771.0,1769235726.909
2158623.0,1769235726.868
2158285.0,1769235726.949
2160319.0,1769235726.99
2162937.0,1769235727.03
2165806.0,1769235727.069
2166253.0,1769235727.107
2164981.0,1769235727.148
2163533.0,1769235727.188
2163092.0,1769235727.227
2162447.0,1769235727.269
2163179.0,1769235727.308
2164152.0,1769235727.348
2165162.0,1769235727.39
2166350.0,1769235727.428
2167184.0,1769235727.469
2168075.0,1769235727.51
2169585.0,1769235727.549
2171113.0,1769235727.59
2172979.0,1769235727.631
2173419.0,1769235727.668
2171758.0,1769235727.708
2169345.0,1769235727.75
2167963.0,1769235727.79
2166751.0,1769235727.829
2166924.0,1769235727.87
2167477.0,1769235727.91
2168124.0,1769235727.95
2167648.0,1769235727.99
2165937.0,1769235728.028
2165192.0,1769235728.069
2164134.0,1769235728.11
2162331.0,1769235728.149
2160744.0,1769235728.19
2159057.0,1769235728.231
2156793.0,1769235728.27
2152010.0,1769235728.31
2147621.0,1769235728.349
2144648.0,1769235728.389
2141777.0,1769235728.429
2140476.0,1769235728.47
2140668.0,1769235728.509
2137709.0,1769235728.55
2133602.0,1769235728.591
2128546.0,1769235728.63
2131787.0,1769235728.67
2139973.0,1769235728.709
2145470.0,1769235728.749
2148610.0,1769235728.79
2151045.0,1769235728.83
2152957.0,1769235728.87
2151926.0,1769235728.91
2150432.0,1769235728.951
2150837.0,1769235728.991
2152422.0,1769235729.029
2154403.0,1769235729.07
2157332.0,1769235729.109
2160585.0,1769235729.149
2163132.0,1769235729.192
2165083.0,1769235729.23
2166977.0,1769235729.27
2168476.0,1769235729.312
2170583.0,1769235729.349
2172638.0,1769235729.39
2174790.0,1769235729.43
2176472.0,1769235729.47
2176388.0,1769235729.51
2174648.0,1769235729.551
2173648.0,1769235729.591
2173359.0,1769235729.631
2172947.0,1769235729.672
2174230.0,1769235729.711
2175912.0,1769235729.751
2176820.0,1769235729.793
2178400.0,1769235729.829
2179875.0,1769235729.869
2181888.0,1769235729.911
2183536.0,1769235729.95
2185501.0,1769235729.991
2187411.0,1769235730.031
2188518.0,1769235730.071
2187780.0,1769235730.111
2186251.0,1769235730.152
2185396.0,1769235730.19
2184752.0,1769235730.229
2185113.0,1769235730.271
2186203.0,1769235730.31
2187385.0,1769235730.35
2188513.0,1769235730.392
2189190.0,1769235730.431
2190364.0,1769235730.471
2191829.0,1769235730.512
2193609.0,1769235730.549
2195475.0,1769235730.59
2197876.0,1769235730.631
2197965.0,1769235730.67
2196738.0,1769235730.711
2195226.0,1769235730.752
2195126.0,1769235730.792
2195224.0,1769235730.831
2195842.0,1769235730.871
2197239.0,1769235730.91
2198998.0,1769235730.95
2199244.0,1769235730.992
2196233.0,1769235731.031
2189368.0,1769235731.071
2183911.0,1769235731.112
2180736.0,1769235731.151
2186386.0,1769235731.192
2193668.0,1769235731.231
2195645.0,1769235731.27
2194133.0,1769235731.31
2193774.0,1769235731.352
2191213.0,1769235731.392
2189942.0,1769235731.431
2190457.0,1769235731.472
2191801.0,1769235731.512
2193847.0,1769235731.552
2196366.0,1769235731.592
2197393.0,1769235731.63
2199256.0,1769235731.671
2200339.0,1769235731.712
2202573.0,1769235731.751
2204379.0,1769235731.792
2206616.0,1769235731.833
2208338.0,1769235731.872
2207688.0,1769235731.91
2205949.0,1769235731.952
2204705.0,1769235731.991
2204454.0,1769235732.031
2203968.0,1769235732.072
2204599.0,1769235732.111
2205690.0,1769235732.152
2206717.0,1769235732.194
2207850.0,1769235732.232
2208443.0,1769235732.272
2209422.0,1769235732.313
2210128.0,1769235732.352
2211269.0,1769235732.391
2212652.0,1769235732.432
2214141.0,1769235732.471
2213998.0,1769235732.511
2212060.0,1769235732.553
2209613.0,1769235732.592
2207641.0,1769235732.632
2206670.0,1769235732.673
2206068.0,1769235732.712
2206076.0,1769235732.751
2206691.0,1769235732.793
2206709.0,1769235732.831
2206980.0,1769235732.871
2207488.0,1769235732.913
2208300.0,1769235732.952
2209047.0,1769235732.993
2210267.0,1769235733.033
2211535.0,1769235733.073
2211920.0,1769235733.111
2209951.0,1769235733.152
2207241.0,1769235733.192
2205928.0,1769235733.232
2204566.0,1769235733.273
2204593.0,1769235733.312
2205294.0,1769235733.352
2205531.0,1769235733.394
2205757.0,1769235733.433
2206399.0,1769235733.471
2207172.0,1769235733.512
2207997.0,1769235733.552
2209623.0,1769235733.593
2210940.0,1769235733.633
2212374.0,1769235733.672
2210532.0,1769235733.713
2207410.0,1769235733.754
2204665.0,1769235733.792
2202550.0,1769235733.831
2201067.0,1769235733.873
2200489.0,1769235733.912
2200801.0,1769235733.952
2200400.0,1769235733.994
2199734.0,1769235734.033
2199261.0,1769235734.073
2198977.0,1769235734.114
2199341.0,1769235734.151
2199382.0,1769235734.192
2200387.0,1769235734.233
2199103.0,1769235734.272
2194401.0,1769235734.313
2189632.0,1769235734.354
2185321.0,1769235734.394
2181387.0,1769235734.433
2178673.0,1769235734.475
2177491.0,1769235734.512
2176879.0,1769235734.552
2176150.0,1769235734.594
2175176.0,1769235734.632
2174911.0,1769235734.673
2174788.0,1769235734.714
2174994.0,1769235734.753
2175614.0,1769235734.792
2175850.0,1769235734.832
2172725.0,1769235734.872
2167327.0,1769235734.912
2162382.0,1769235734.953
2158189.0,1769235734.993
2154408.0,1769235735.033
2152421.0,1769235735.074
2151387.0,1769235735.113
2150563.0,1769235735.153
2149295.0,1769235735.195
2148304.0,1769235735.234
2147506.0,1769235735.272
2146928.0,1769235735.313
2145969.0,1769235735.353
2144717.0,1769235735.394
2143958.0,1769235735.434
2140512.0,1769235735.473
2133875.0,1769235735.514
2125411.0,1769235735.555
2116190.0,1769235735.595
2105984.0,1769235735.632
2097200.0,1769235735.674
2103057.0,1769235735.713
2108057.0,1769235735.753
2108735.0,1769235735.795
2106661.0,1769235735.874
2107672.0,1769235735.834
2104712.0,1769235735.915
2103635.0,1769235735.952
2104228.0,1769235735.993
2106478.0,1769235736.034
2107495.0,1769235736.073
2104726.0,1769235736.113
2101093.0,1769235736.155
2098389.0,1769235736.195
2096426.0,1769235736.234
2096404.0,1769235736.275
2097985.0,1769235736.313
2100034.0,1769235736.353
2101851.0,1769235736.395
2103478.0,1769235736.433
2105578.0,1769235736.474
2107755.0,1769235736.515
2110643.0,1769235736.554
2113255.0,1769235736.595
2115849.0,1769235736.636
2117856.0,1769235736.673
2116446.0,1769235736.713
2113515.0,1769235736.755
2110939.0,1769235736.794
2109880.0,1769235736.834
2108850.0,1769235736.875
2108910.0,1769235736.914
2108841.0,1769235736.955
2108942.0,1769235736.995
2109743.0,1769235737.033
2110047.0,1769235737.074
2111497.0,1769235737.115
2112719.0,1769235737.154
2114632.0,1769235737.195
2116847.0,1769235737.236
2118991.0,1769235737.275
2120821.0,1769235737.315
2116949.0,1769235737.393
2119409.0,1769235737.354
2114240.0,1769235737.433
2112079.0,1769235737.475
2110049.0,1769235737.513
2109141.0,1769235737.553
2108339.0,1769235737.595
2106654.0,1769235737.634
2103351.0,1769235737.674
2098797.0,1769235737.715
2095445.0,1769235737.755
2094052.0,1769235737.796
2092320.0,1769235737.836
2091438.0,1769235737.873
2091149.0,1769235737.914
2091062.0,1769235737.955
2090831.0,1769235737.995
2090099.0,1769235738.034
2086825.0,1769235738.076
2084085.0,1769235738.115
2081539.0,1769235738.155
2080115.0,1769235738.197
2079615.0,1769235738.234
2080072.0,1769235738.273
2080631.0,1769235738.312
2081230.0,1769235738.351
2081226.0,1769235738.39
2081567.0,1769235738.429
2082146.0,1769235738.468
2082804.0,1769235738.507
2083964.0,1769235738.546
2084872.0,1769235738.585
2086131.0,1769235738.624
2087829.0,1769235738.663
2088075.0,1769235738.702
2086457.0,1769235738.741
2085128.0,1769235738.78
2085044.0,1769235738.819
2085941.0,1769235738.858
2087457.0,1769235738.897
2089863.0,1769235738.936
2092480.0,1769235738.975
2094489.0,1769235739.014
2096220.0,1769235739.053
2098662.0,1769235739.092
2100522.0,1769235739.131
2102706.0,1769235739.17
2105391.0,1769235739.209
2107920.0,1769235739.248
2109959.0,1769235739.287
2112343.0,1769235739.326
2113449.0,1769235739.365
2111924.0,1769235739.404
2110470.0,1769235739.443
2110082.0,1769235739.482
2109862.0,1769235739.521
2110160.0,1769235739.56
2111556.0,1769235739.6
2112616.0,1769235739.64
2113897.0,1769235739.68
2114875.0,1769235739.72
2116400.0,1769235739.76
2117951.0,1769235739.8
2119561.0,1769235739.84
2121387.0,1769235739.88
2123604.0,1769235739.92
2125639.0,1769235739.96
2127492.0,1769235740.0
2126656.0,1769235740.04
2125103.0,1769235740.08
2124046.0,1769235740.12
2123497.0,1769235740.16
2123237.0,1769235740.2
2123835.0,1769235740.24
2125082.0,1769235740.28
2126009.0,1769235740.32
2126964.0,1769235740.36
2127845.0,1769235740.4
2129242.0,1769235740.44
2130554.0,1769235740.48
2131613.0,1769235740.52
2133449.0,1769235740.56
2134967.0,1769235740.6
2135331.0,1769235740.64
2133164.0,1769235740.68
2131150.0,1769235740.72
2129321.0,1769235740.76
2128547.0,1769235740.8
2127929.0,1769235740.84
2127916.0,1769235740.88
2128295.0,1769235740.92
2128889.0,1769235740.96
2129531.0,1769235741.0
2130064.0,1769235741.04
2131296.0,1769235741.08
2132116.0,1769235741.12
2133637.0,1769235741.16
2135454.0,1769235741.2
2136857.0,1769235741.24
2137694.0,1769235741.28
2135961.0,1769235741.32
2133709.0,1769235741.36
2132145.0,1769235741.4
2130955.0,1769235741.44
2130755.0,1769235741.48
2130808.0,1769235741.52
2131766.0,1769235741.56
2132285.0,1769235741.6
2133047.0,1769235741.64
2133902.0,1769235741.68
2134610.0,1769235741.72
2136019.0,1769235741.76
2137632.0,1769235741.8
2138813.0,1769235741.84
2140592.0,1769235741.88
2141059.0,1769235741.92
2139714.0,1769235741.96
2136681.0,1769235742.0
2134127.0,1769235742.04
2132534.0,1769235742.08
2131019.0,1769235742.12
2130654.0,1769235742.16
2131177.0,1769235742.2
2131747.0,1769235742.24
2131675.0,1769235742.28
2132045.0,1769235742.32
2132591.0,1769235742.36
2133174.0,1769235742.4
2134094.0,1769235742.44
2135324.0,1769235742.48
2136258.0,1769235742.52
2137398.0,1769235742.56
2136202.0,1769235742.6
2132734.0,1769235742.64
2129036.0,1769235742.68
2126231.0,1769235742.72
2124187.0,1769235742.76
2122818.0,1769235742.8
2122502.0,1769235742.84
2121908.0,1769235742.88
2121357.0,1769235742.92
2120716.0,1769235742.96
2119933.0,1769235743.0
2119771.0,1769235743.04
2120102.0,1769235743.08
2120623.0,1769235743.12
2121067.0,1769235743.16
2121186.0,1769235743.2
2116561.0,1769235743.24
2111315.0,1769235743.28
2106791.0,1769235743.32
2103071.0,1769235743.36
2099982.0,1769235743.4
2098206.0,1769235743.44
2097061.0,1769235743.48
2096030.0,1769235743.52
2094776.0,1769235743.56
2093895.0,1769235743.6
2093928.0,1769235743.64
2094175.0,1769235743.68
2094564.0,1769235743.72
2095735.0,1769235743.76
2096445.0,1769235743.8
2095106.0,1769235743.84
2090959.0,1769235743.88
2087011.0,1769235743.92
2083787.0,1769235743.96
2081423.0,1769235744.0
2080065.0,1769235744.04
2079638.0,1769235744.08
2079640.0,1769235744.12
2079276.0,1769235744.16
2078448.0,1769235744.2
2078580.0,1769235744.24
2078934.0,1769235744.28
2079617.0,1769235744.32
2080258.0,1769235744.36
2081042.0,1769235744.4
2081109.0,1769235744.44
2077781.0,1769235744.48
2073301.0,1769235744.52
2069386.0,1769235744.56
2065989.0,1769235744.6
2063417.0,1769235744.64
2062525.0,1769235744.68
2062192.0,1769235744.72
2062358.0,1769235744.76
2061830.0,1769235744.8
2061988.0,1769235744.84
2062234.0,1769235744.88
2062882.0,1769235744.92
2064170.0,1769235744.96
2065087.0,1769235745.0
2066383.0,1769235745.04
2067451.0,1769235745.08
2065990.0,1769235745.12
2061786.0,1769235745.16
2058233.0,1769235745.2
2055342.0,1769235745.24
2053255.0,1769235745.28
2052096.0,1769235745.32
2052111.0,1769235745.36
2052281.0,1769235745.4
2052494.0,1769235745.44
2052465.0,1769235745.48
2052724.0,1769235745.52
2053632.0,1769235745.56
2054022.0,1769235745.6
2055157.0,1769235745.64
2055597.0,1769235745.68
2055834.0,1769235745.72
2055713.0,1769235745.76
2052722.0,1769235745.8
2048319.0,1769235745.84
2044455.0,1769235745.88
2041593.0,1769235745.92
2037959.0,1769235745.96
2036214.0,1769235746.0
2035565.0,1769235746.04
2035566.0,1769235746.08
2035471.0,1769235746.12
2036253.0,1769235746.16
2037392.0,1769235746.2
2039429.0,1769235746.24
2040937.0,1769235746.28
2043027.0,1769235746.32
2045464.0,1769235746.36
2048411.0,1769235746.4
2048409.0,1769235746.44
2047102.0,1769235746.48
2046179.0,1769235746.52
2045929.0,1769235746.56
2046027.0,1769235746.6
2047447.0,1769235746.64
2049263.0,1769235746.68
2050862.0,1769235746.72
2051819.0,1769235746.76
2053296.0,1769235746.8
2055026.0,1769235746.84
2057194.0,1769235746.88
2059139.0,1769235746.92
2061095.0,1769235746.96
2063805.0,1769235747.0
2065145.0,1769235747.04
2064437.0,1769235747.08
2063020.0,1769235747.12
2061847.0,1769235747.16
2061534.0,1769235747.2
2061237.0,1769235747.24
2062496.0,1769235747.28
2063823.0,1769235747.32
2064728.0,1769235747.36
2066090.0,1769235747.4
2067744.0,1769235747.44
2068944.0,1769235747.48
2070556.0,1769235747.52
2072860.0,1769235747.56
2074954.0,1769235747.6
2076738.0,1769235747.64
2078545.0,1769235747.68
2077639.0,1769235747.72
2076405.0,1769235747.76
2075392.0,1769235747.8
2075021.0,1769235747.84
2074584.0,1769235747.88
2075235.0,1769235747.92
2076176.0,1769235747.96
2077783.0,1769235748.0
2078592.0,1769235748.04
2080124.0,1769235748.08
2081110.0,1769235748.12
2082703.0,1769235748.16
2084064.0,1769235748.2
2085855.0,1769235748.24
2087558.0,1769235748.28
2089193.0,1769235748.32
2088248.0,1769235748.36
2087288.0,1769235748.4
2086768.0,1769235748.44
2086425.0,1769235748.48
2087117.0,1769235748.52
2089003.0,1769235748.56
2090268.0,1769235748.6
2091503.0,1769235748.64
2092751.0,1769235748.68
2094029.0,1769235748.72
2095950.0,1769235748.76
2097395.0,1769235748.8
2099564.0,1769235748.84
2101637.0,1769235748.88
2103334.0,1769235748.92
2104527.0,1769235748.96
2103521.0,1769235749.0
2102514.0,1769235749.04
2102028.0,1769235749.08
2102415.0,1769235749.12
2103133.0,1769235749.16
2104259.0,1769235749.2
2105961.0,1769235749.24
2107115.0,1769235749.28
2108276.0,1769235749.32
2109712.0,1769235749.36
2111456.0,1769235749.4
2113364.0,1769235749.44
2115036.0,1769235749.48
2117477.0,1769235749.52
2119229.0,1769235749.56
2119356.0,1769235749.6
2117917.0,1769235749.64
2116739.0,1769235749.68
2116319.0,1769235749.72
2115618.0,1769235749.76
2115811.0,1769235749.8
2116636.0,1769235749.84
2117739.0,1769235749.88
2118492.0,1769235749.92
2119253.0,1769235749.96
2120125.0,1769235750.0
2120877.0,1769235750.04
2122551.0,1769235750.08
2123820.0,1769235750.12
2124853.0,1769235750.16
2126492.0,1769235750.2
2127493.0,1769235750.242
2126094.0,1769235750.283
2124198.0,1769235750.322
2122672.0,1769235750.363
2121714.0,1769235750.403
2120961.0,1769235750.442
2120957.0,1769235750.482
2121350.0,1769235750.523
2121350.0,1769235750.563
2121085.0,1769235750.603
2121431.0,1769235750.644
2121617.0,1769235750.683
2125382.0,1769235750.843
2126984.0,1769235750.884
2127628.0,1769235750.923
2126169.0,1769235750.964
2124726.0,1769235751.004
2123875.0,1769235750.803
2122993.0,1769235750.765
2122420.0,1769235750.723
2124173.0,1769235751.043
2124424.0,1769235751.083
2125149.0,1769235751.124
2126090.0,1769235751.164
2127448.0,1769235751.203
2128225.0,1769235751.245
2129228.0,1769235751.284
2130587.0,1769235751.324
2131683.0,1769235751.365
2133927.0,1769235751.444
2132895.0,1769235751.404
2135227.0,1769235751.485
2136814.0,1769235751.524
2136275.0,1769235751.565
2134610.0,1769235751.605
2133008.0,1769235751.644
2132107.0,1769235751.684
2131679.0,1769235751.725
2131419.0,1769235751.765
2131609.0,1769235751.845
2131472.0,1769235751.884
2131523.0,1769235751.925
2131369.0,1769235751.966
2132047.0,1769235752.005
2132658.0,1769235752.045
2133650.0,1769235752.086
2134212.0,1769235752.125
2133571.0,1769235752.165
2130558.0,1769235752.206
2127292.0,1769235752.245
2125194.0,1769235752.285
2123557.0,1769235752.326
2121511.0,1769235752.366
2120780.0,1769235752.405
2120474.0,1769235752.446
2119204.0,1769235752.485
2117890.0,1769235752.525
2116984.0,1769235752.567
2131770.0,1769235751.804
2116318.0,1769235752.605
2116322.0,1769235752.645
2116636.0,1769235752.687
2117007.0,1769235752.726
2116734.0,1769235752.766
2113947.0,1769235752.807
2110264.0,1769235752.846
2107481.0,1769235752.886
2105335.0,1769235752.927
2103649.0,1769235752.967
2103134.0,1769235753.006
2103211.0,1769235753.047
2103825.0,1769235753.086
2103539.0,1769235753.126
2104142.0,1769235753.168
2106098.0,1769235753.246
2105176.0,1769235753.206
2107420.0,1769235753.288
2108876.0,1769235753.327
2109671.0,1769235753.367
2107312.0,1769235753.408
2103815.0,1769235753.447
2101584.0,1769235753.487
2099729.0,1769235753.528
2098125.0,1769235753.568
2097882.0,1769235753.607
2098228.0,1769235753.648
2098487.0,1769235753.687
2098571.0,1769235753.727
2098941.0,1769235753.769
2099580.0,1769235753.807
2100289.0,1769235753.847
2101578.0,1769235753.888
2102444.0,1769235753.927
2102438.0,1769235753.968
2100029.0,1769235754.008
2096873.0,1769235754.047
2095288.0,1769235754.088
2093467.0,1769235754.129
2092841.0,1769235754.168
2093329.0,1769235754.208
2093354.0,1769235754.249
2093614.0,1769235754.288
2093857.0,1769235754.328
2094197.0,1769235754.37
2095039.0,1769235754.408
2095894.0,1769235754.448
2097275.0,1769235754.489
2098221.0,1769235754.528
2096011.0,1769235754.569
2093791.0,1769235754.609
2091594.0,1769235754.648
2090535.0,1769235754.688
2089720.0,1769235754.729
2089202.0,1769235754.769
2088334.0,1769235754.808
2086175.0,1769235754.849
2084615.0,1769235754.888
2083832.0,1769235754.929
2083212.0,1769235754.97
2083320.0,1769235755.009
2084297.0,1769235755.049
2084524.0,1769235755.09
2083017.0,1769235755.129
2080383.0,1769235755.17
2078589.0,1769235755.21
2077732.0,1769235755.249
2077357.0,1769235755.289
2077618.0,1769235755.33
2079173.0,1769235755.37
2080208.0,1769235755.409
2081707.0,1769235755.45
2083509.0,1769235755.489
2084446.0,1769235755.529
2086540.0,1769235755.571
2088455.0,1769235755.609
2091357.0,1769235755.649
2093706.0,1769235755.69
2093026.0,1769235755.729
2092897.0,1769235755.77
2093252.0,1769235755.811
2093239.0,1769235755.85
2092389.0,1769235755.89
2092275.0,1769235755.931
2093675.0,1769235755.97
2095321.0,1769235756.01
2097107.0,1769235756.051
2099627.0,1769235756.09
2101852.0,1769235756.13
2104397.0,1769235756.172
2107056.0,1769235756.21
2109568.0,1769235756.25
2111463.0,1769235756.291
2111755.0,1769235756.33
2111333.0,1769235756.371
2111235.0,1769235756.411
2111431.0,1769235756.45
2111620.0,1769235756.491
2112000.0,1769235756.532
2112491.0,1769235756.571
2113132.0,1769235756.611
2113365.0,1769235756.652
2114191.0,1769235756.691
2115384.0,1769235756.731
2117464.0,1769235756.773
2119289.0,1769235756.811
2121565.0,1769235756.851
2123639.0,1769235756.892
2125694.0,1769235756.931
2125836.0,1769235756.972
2125505.0,1769235757.012
2125843.0,1769235757.051
2126393.0,1769235757.091
2127382.0,1769235757.132
2128758.0,1769235757.172
2133340.0,1769235757.253
2134995.0,1769235757.292
2131320.0,1769235757.212
2139297.0,1769235757.373
2137642.0,1769235757.332
2141941.0,1769235757.412
2143791.0,1769235757.452
2145764.0,1769235757.493
2147356.0,1769235757.532
2148373.0,1769235757.573
2148176.0,1769235757.613
2148481.0,1769235757.652
2149536.0,1769235757.692
2150299.0,1769235757.733
2151802.0,1769235757.773
2153870.0,1769235757.812
2155454.0,1769235757.853
2157436.0,1769235757.892
2158725.0,1769235757.932
2160096.0,1769235757.974
2162670.0,1769235758.012
2164624.0,1769235758.052
2166629.0,1769235758.094
2169135.0,1769235758.133
2170052.0,1769235758.173
2169910.0,1769235758.214
2169879.0,1769235758.253
2170059.0,1769235758.293
2170949.0,1769235758.334
2171869.0,1769235758.374
2173291.0,1769235758.413
2174783.0,1769235758.454
2175711.0,1769235758.493
2177374.0,1769235758.533
2178136.0,1769235758.575
2180245.0,1769235758.613
2181625.0,1769235758.653
2183011.0,1769235758.694
2185141.0,1769235758.733
2186145.0,1769235758.774
2186431.0,1769235758.815
2185784.0,1769235758.854
2185514.0,1769235758.894
2185813.0,1769235758.935
2186570.0,1769235758.974
2187915.0,1769235759.014
2189304.0,1769235759.055
2190271.0,1769235759.094
2191387.0,1769235759.134
2193012.0,1769235759.176
2194486.0,1769235759.214
2196556.0,1769235759.254
2198474.0,1769235759.295
2200297.0,1769235759.334
2202121.0,1769235759.375
2203252.0,1769235759.415
2202443.0,1769235759.454
2201490.0,1769235759.495
2201097.0,1769235759.536
2201156.0,1769235759.575
2201774.0,1769235759.615
2202380.0,1769235759.656
2203393.0,1769235759.695
2204005.0,1769235759.735
2204327.0,1769235759.777
2204600.0,1769235759.815
2205590.0,1769235759.855
2205927.0,1769235759.896
2206689.0,1769235759.935
2207121.0,1769235759.976
2208577.0,1769235760.016
2209370.0,1769235760.055
2208550.0,1769235760.096
2207403.0,1769235760.137
2207195.0,1769235760.176
2207145.0,1769235760.216
2207555.0,1769235760.257
2208330.0,1769235760.296
2209252.0,1769235760.336
2210196.0,1769235760.378
2210276.0,1769235760.416
2210541.0,1769235760.456
2211050.0,1769235760.497
2211702.0,1769235760.536
2212763.0,1769235760.577
2214318.0,1769235760.617
2215197.0,1769235760.656
2215264.0,1769235760.697
2213960.0,1769235760.738
2211931.0,1769235760.777
2210647.0,1769235760.817
2209657.0,1769235760.858
2208878.0,1769235760.897
2209525.0,1769235760.937
2209624.0,1769235760.979
2209085.0,1769235761.017
2208858.0,1769235761.057
2208697.0,1769235761.098
2208763.0,1769235761.137
2209361.0,1769235761.178
2210085.0,1769235761.218
2210452.0,1769235761.257
2208517.0,1769235761.298
2204537.0,1769235761.339
2201250.0,1769235761.378
2198156.0,1769235761.418
2195914.0,1769235761.459
2194034.0,1769235761.498
2193175.0,1769235761.538
2192339.0,1769235761.58
2191041.0,1769235761.618
2189783.0,1769235761.658
2188741.0,1769235761.699
2188366.0,1769235761.738
2188244.0,1769235761.779
2188254.0,1769235761.819
2187662.0,1769235761.858
2184175.0,1769235761.899
2178591.0,1769235761.94
2172757.0,1769235761.979
2167917.0,1769235762.019
2163777.0,1769235762.06
2160918.0,1769235762.099
2158681.0,1769235762.139
2157298.0,1769235762.181
2155344.0,1769235762.219
2153729.0,1769235762.299
2152368.0,1769235762.34
2151939.0,1769235762.379
2151375.0,1769235762.42
2151431.0,1769235762.46
2151470.0,1769235762.499
2149969.0,1769235762.539
2144460.0,1769235762.58
2137836.0,1769235762.62
2130986.0,1769235762.659
2124860.0,1769235762.7
2120267.0,1769235762.74
2116697.0,1769235762.78
2114491.0,1769235762.821
2112363.0,1769235762.86
2110362.0,1769235762.9
2108278.0,1769235762.941
2107128.0,1769235762.98
2105923.0,1769235763.021
2105295.0,1769235763.061
2105115.0,1769235763.1
2104533.0,1769235763.14
2104320.0,1769235763.181
2104567.0,1769235763.221
2103523.0,1769235763.26
2097800.0,1769235763.302
2090643.0,1769235763.341
2084825.0,1769235763.381
2079506.0,1769235763.423
2074655.0,1769235763.461
2071497.0,1769235763.501
2069471.0,1769235763.542
2067721.0,1769235763.581
2065750.0,1769235763.622
2063700.0,1769235763.662
2062624.0,1769235763.701
2062213.0,1769235763.741
2062059.0,1769235763.782
2062277.0,1769235763.822
2063130.0,1769235763.861
2063604.0,1769235763.903
2062824.0,1769235763.942
2058454.0,1769235763.982
2052751.0,1769235764.023
2048406.0,1769235764.062
2045482.0,1769235764.102
2043607.0,1769235764.143
2042867.0,1769235764.182
2042376.0,1769235764.223
2041366.0,1769235764.263
2040863.0,1769235764.302
2040792.0,1769235764.342
2041084.0,1769235764.383
2041872.0,1769235764.423
2042798.0,1769235764.462
2043805.0,1769235764.503
2045220.0,1769235764.542
2044995.0,1769235764.583
2040584.0,1769235764.624
2035840.0,1769235764.663
2032561.0,1769235764.703
2029630.0,1769235764.744
2028114.0,1769235764.783
2027472.0,1769235764.824
2028046.0,1769235764.864
2028500.0,1769235764.903
2028559.0,1769235764.943
2029497.0,1769235764.984
2030555.0,1769235765.024
2032033.0,1769235765.063
2033910.0,1769235765.104
2035850.0,1769235765.143
2037815.0,1769235765.184
2040237.0,1769235765.225
2040328.0,1769235765.264
2037619.0,1769235765.304
2035098.0,1769235765.345
2033028.0,1769235765.384
2031410.0,1769235765.425
2030694.0,1769235765.466
2030564.0,1769235765.503
2031063.0,1769235765.541
2031408.0,1769235765.576
2031572.0,1769235765.608
2032754.0,1769235765.649
2033689.0,1769235765.689
2035196.0,1769235765.728
2037609.0,1769235765.769
2039596.0,1769235765.811
2042122.0,1769235765.849
2045380.0,1769235765.89
2048022.0,1769235765.931
2050890.0,1769235765.97
2050781.0,1769235766.011
2049402.0,1769235766.05
2048985.0,1769235766.089
2049148.0,1769235766.129
2049595.0,1769235766.17
2050848.0,1769235766.21
2053160.0,1769235766.25
2054883.0,1769235766.291
2056159.0,1769235766.33
2057849.0,1769235766.371
2059918.0,1769235766.411
2062489.0,1769235766.449
2065017.0,1769235766.489
2067499.0,1769235766.531
2070378.0,1769235766.57
2072707.0,1769235766.611
2073611.0,1769235766.651
2072727.0,1769235766.691
2072457.0,1769235766.731
2073191.0,1769235766.77
2073714.0,1769235766.81
2075166.0,1769235766.849
2077046.0,1769235766.891
2078808.0,1769235766.93
2080252.0,1769235766.97
2081784.0,1769235767.012
2083213.0,1769235767.051
2085226.0,1769235767.091
2089651.0,1769235767.169
2087344.0,1769235767.13
2091939.0,1769235767.21
2093841.0,1769235767.251
2094284.0,1769235767.29
2093249.0,1769235767.33
2092597.0,1769235767.372
2092884.0,1769235767.412
2093210.0,1769235767.451
2093922.0,1769235767.49
2095550.0,1769235767.53
2097002.0,1769235767.57
2098575.0,1769235767.612
2100352.0,1769235767.65
2102047.0,1769235767.691
2103920.0,1769235767.732
2106264.0,1769235767.771
2108071.0,1769235767.81
2110292.0,1769235767.851
2113248.0,1769235767.89
2115598.0,1769235767.93
2117503.0,1769235767.972
2117627.0,1769235768.011
2116479.0,1769235768.051
2116684.0,1769235768.09
2117222.0,1769235768.13
2117552.0,1769235768.17
2118504.0,1769235768.211
2120041.0,1769235768.25
2121189.0,1769235768.29
2122605.0,1769235768.331
2123858.0,1769235768.371
2125330.0,1769235768.411
2126811.0,1769235768.452
2128690.0,1769235768.491
2130298.0,1769235768.532
2132049.0,1769235768.573
2133621.0,1769235768.611
2135582.0,1769235768.65
2135790.0,1769235768.691
2134314.0,1769235768.731
2133249.0,1769235768.771
2132757.0,1769235768.813
2132742.0,1769235768.852
2133130.0,1769235768.892
2133923.0,1769235768.931
2134860.0,1769235768.97
2135297.0,1769235769.011
2136231.0,1769235769.052
2137496.0,1769235769.091
2138144.0,1769235769.131
2139542.0,1769235769.173
2141064.0,1769235769.213
2142577.0,1769235769.252
2143637.0,1769235769.291
2143610.0,1769235769.331
2141484.0,1769235769.371
2140282.0,1769235769.413
2139777.0,1769235769.451
2139510.0,1769235769.492
2139814.0,1769235769.533
2140541.0,1769235769.572
2140982.0,1769235769.613
2141301.0,1769235769.651
2142013.0,1769235769.691
2143028.0,1769235769.731
2143883.0,1769235769.772
2145445.0,1769235769.812
2146517.0,1769235769.852
2148367.0,1769235769.893
2149828.0,1769235769.932
2149240.0,1769235769.971
2147300.0,1769235770.013
2144854.0,1769235770.051
2143423.0,1769235770.091
2142314.0,1769235770.133
2141452.0,1769235770.172
2140995.0,1769235770.213
2141355.0,1769235770.253
2141742.0,1769235770.293
2141707.0,1769235770.331
2142187.0,1769235770.372
2142820.0,1769235770.412
2143676.0,1769235770.452
2145037.0,1769235770.493
2146230.0,1769235770.532
2147265.0,1769235770.572
2148655.0,1769235770.614
2148901.0,1769235770.65
2146738.0,1769235770.69
2143597.0,1769235770.731
2141308.0,1769235770.771
2139270.0,1769235770.812
2137802.0,1769235770.852
2137055.0,1769235770.891
2137028.0,1769235770.931
2136918.0,1769235770.973
2136926.0,1769235771.013
2136431.0,1769235771.052
2136663.0,1769235771.093
2137070.0,1769235771.133
2137467.0,1769235771.173
2138300.0,1769235771.215
2139084.0,1769235771.251
2139888.0,1769235771.292
2140702.0,1769235771.333
2140402.0,1769235771.372
2136730.0,1769235771.413
2133134.0,1769235771.454
2129983.0,1769235771.493
2127532.0,1769235771.533
2125780.0,1769235771.574
2125203.0,1769235771.612
2124899.0,1769235771.652
2124722.0,1769235771.693
2124048.0,1769235771.732
2123754.0,1769235771.773
2123621.0,1769235771.815
2124453.0,1769235771.853
2124661.0,1769235771.893
2125548.0,1769235771.935
2126141.0,1769235771.972
2126906.0,1769235772.013
2124600.0,1769235772.053
2120799.0,1769235772.092
2116882.0,1769235772.133
2113716.0,1769235772.174
2111582.0,1769235772.214
2110509.0,1769235772.253
2109755.0,1769235772.295
2109491.0,1769235772.332
2108487.0,1769235772.372
2108012.0,1769235772.414
2108250.0,1769235772.453
2108720.0,1769235772.493
2108715.0,1769235772.534
2109731.0,1769235772.573
2110659.0,1769235772.614
2111545.0,1769235772.655
2110190.0,1769235772.692
2106368.0,1769235772.732
2102408.0,1769235772.774
2099480.0,1769235772.814
2096688.0,1769235772.853
2094903.0,1769235772.894
2094324.0,1769235772.934
2094222.0,1769235772.974
2093911.0,1769235773.014
2093343.0,1769235773.052
2093186.0,1769235773.093
2093474.0,1769235773.134
2094118.0,1769235773.173
2095017.0,1769235773.214
2096007.0,1769235773.254
2097319.0,1769235773.294
2098174.0,1769235773.334
2097458.0,1769235773.375
2093252.0,1769235773.413
2089549.0,1769235773.453
2086371.0,1769235773.494
2083754.0,1769235773.533
2081735.0,1769235773.573
2081190.0,1769235773.615
2080648.0,1769235773.654
2080264.0,1769235773.694
2079360.0,1769235773.735
2078471.0,1769235773.773
2077197.0,1769235773.814
2076059.0,1769235773.854
2075690.0,1769235773.893
2075466.0,1769235773.934
2075332.0,1769235773.975
2073573.0,1769235774.015
2072182.0,1769235774.054
2071115.0,1769235774.096
2067825.0,1769235774.133
2062721.0,1769235774.173
2059764.0,1769235774.215
2057244.0,1769235774.254
2056124.0,1769235774.297
2055639.0,1769235774.338
2055628.0,1769235774.377
2056007.0,1769235774.417
2056474.0,1769235774.458
2057205.0,1769235774.497
2058372.0,1769235774.537
2059671.0,1769235774.578
2060713.0,1769235774.618
2062657.0,1769235774.657
2064455.0,1769235774.698
2066967.0,1769235774.737
2067836.0,1769235774.778
2066158.0,1769235774.82
2063945.0,1769235774.858
2062089.0,1769235774.896
2061108.0,1769235774.938
2060731.0,1769235774.977
2061151.0,1769235775.018
2062376.0,1769235775.058
2062906.0,1769235775.098
2063839.0,1769235775.138
2064925.0,1769235775.179
2066348.0,1769235775.219
2067613.0,1769235775.256
2069026.0,1769235775.298
2070685.0,1769235775.337
2072358.0,1769235775.377
2074021.0,1769235775.419
2072648.0,1769235775.458
2069821.0,1769235775.498
2067657.0,1769235775.539
2065685.0,1769235775.578
2064748.0,1769235775.617
2063951.0,1769235775.658
2064203.0,1769235775.697
2064669.0,1769235775.737
2065141.0,1769235775.779
2065064.0,1769235775.818
2065567.0,1769235775.858
2066805.0,1769235775.899
2068135.0,1769235775.939
2069202.0,1769235775.979
2070657.0,1769235776.019
2072393.0,1769235776.057
2073262.0,1769235776.097
2071409.0,1769235776.139
2069250.0,1769235776.178
2067752.0,1769235776.219
2066968.0,1769235776.259
2066368.0,1769235776.299
2066776.0,1769235776.339
2067971.0,1769235776.378
2070115.0,1769235776.457
2069061.0,1769235776.418
2071139.0,1769235776.499
2072540.0,1769235776.538
2074574.0,1769235776.578
2076548.0,1769235776.62
2078784.0,1769235776.659
2081015.0,1769235776.699
2083393.0,1769235776.738
2084611.0,1769235776.778
2083469.0,1769235776.819
2082509.0,1769235776.859
2082390.0,1769235776.898
2082464.0,1769235776.939
2082292.0,1769235776.98
2083128.0,1769235777.02
2083883.0,1769235777.057
2084341.0,1769235777.099
2084758.0,1769235777.138
2085656.0,1769235777.178
2086332.0,1769235777.22
2087606.0,1769235777.259
2089116.0,1769235777.299
2090740.0,1769235777.34
2092304.0,1769235777.379
2092764.0,1769235777.418
2091264.0,1769235777.459
2090741.0,1769235777.498
2090391.0,1769235777.538
2090219.0,1769235777.58
2090821.0,1769235777.619
2091675.0,1769235777.659
2092521.0,1769235777.7
2092962.0,1769235777.74
2093942.0,1769235777.778
2095236.0,1769235777.82
2096448.0,1769235777.858
2097881.0,1769235777.899
2099443.0,1769235777.94
2101051.0,1769235777.979
2101023.0,1769235778.02
2099342.0,1769235778.061
2098338.0,1769235778.1
2097698.0,1769235778.138
2097877.0,1769235778.179
2098369.0,1769235778.219
2099438.0,1769235778.259
2100423.0,1769235778.3
2101099.0,1769235778.337
2102604.0,1769235778.378
2103590.0,1769235778.42
2104803.0,1769235778.458
2105955.0,1769235778.498
2107540.0,1769235778.539
2109143.0,1769235778.579
2110427.0,1769235778.62
2109894.0,1769235778.66
2107164.0,1769235778.699
2104897.0,1769235778.74
2102557.0,1769235778.781
2100232.0,1769235778.821
2098759.0,1769235778.858
2098538.0,1769235778.9
2099038.0,1769235778.939
2098635.0,1769235778.979
2098954.0,1769235779.021
2098229.0,1769235779.06
2096671.0,1769235779.1
2100596.0,1769235779.141
2108385.0,1769235779.18
2112521.0,1769235779.219
2115287.0,1769235779.26
2117993.0,1769235779.299
2118097.0,1769235779.339
2115857.0,1769235779.381
2114658.0,1769235779.421
2116206.0,1769235779.46
2118170.0,1769235779.501
2121714.0,1769235779.541
2124914.0,1769235779.579
2127991.0,1769235779.621
2130770.0,1769235779.659
2133133.0,1769235779.699
2136234.0,1769235779.741
2139690.0,1769235779.78
2142852.0,1769235779.821
2145493.0,1769235779.862
2148846.0,1769235779.901
2151682.0,1769235779.939
2152685.0,1769235779.98
2153050.0,1769235780.02
2153724.0,1769235780.06
2154120.0,1769235780.101
2155150.0,1769235780.14
2156159.0,1769235780.18
2157088.0,1769235780.222
2157419.0,1769235780.261
2157535.0,1769235780.299
2158032.0,1769235780.34
2158746.0,1769235780.38
2159780.0,1769235780.421
2160283.0,1769235780.461
2161373.0,1769235780.5
2161512.0,1769235780.541
2160864.0,1769235780.582
2158308.0,1769235780.622
2155962.0,1769235780.659
2154727.0,1769235780.701
2153353.0,1769235780.74
2152846.0,1769235780.78
2153531.0,1769235780.822
2153869.0,1769235780.861
2154137.0,1769235780.898
2153973.0,1769235780.938
2153773.0,1769235780.977
2153955.0,1769235781.018
2154134.0,1769235781.059
2155114.0,1769235781.099
2155869.0,1769235781.14
2155697.0,1769235781.181
2153871.0,1769235781.22
2151426.0,1769235781.26
2149745.0,1769235781.301
2147773.0,1769235781.34
2146442.0,1769235781.38
2145756.0,1769235781.422
2145825.0,1769235781.461
2146147.0,1769235781.501
2146577.0,1769235781.542
2147114.0,1769235781.582
2147714.0,1769235781.621
2148545.0,1769235781.661
2150054.0,1769235781.7
2151849.0,1769235781.741
2152812.0,1769235781.782
2153949.0,1769235781.822
2153151.0,1769235781.861
2150767.0,1769235781.903
2147360.0,1769235781.94
2145257.0,1769235781.98
2143142.0,1769235782.022
2141367.0,1769235782.061
2140515.0,1769235782.101
2140226.0,1769235782.142
2139735.0,1769235782.181
2139276.0,1769235782.222
2139282.0,1769235782.263
2139651.0,1769235782.3
2140620.0,1769235782.341
2142113.0,1769235782.382
2143244.0,1769235782.422
2144187.0,1769235782.461
2144708.0,1769235782.503
2143519.0,1769235782.542
2139983.0,1769235782.582
2137072.0,1769235782.624
2134510.0,1769235782.66
2132778.0,1769235782.701
2131172.0,1769235782.742
2130841.0,1769235782.781
2130251.0,1769235782.822
2129385.0,1769235782.863
2129200.0,1769235782.902
2129001.0,1769235782.942
2129022.0,1769235782.982
2129670.0,1769235783.021
2130018.0,1769235783.061
2130349.0,1769235783.102
2130735.0,1769235783.142
2128408.0,1769235783.182
2125279.0,1769235783.224
2122819.0,1769235783.262
2121173.0,1769235783.303
2119648.0,1769235783.342
2118884.0,1769235783.381
2118880.0,1769235783.422
2118147.0,1769235783.462
2117634.0,1769235783.501
2117087.0,1769235783.541
2116494.0,1769235783.583
2114823.0,1769235783.622
2114316.0,1769235783.662
2114391.0,1769235783.703
2113711.0,1769235783.742
2111071.0,1769235783.783
2107093.0,1769235783.823
2103945.0,1769235783.861
2100947.0,1769235783.901
2098784.0,1769235783.943
2097133.0,1769235783.982
2096570.0,1769235784.023
2096158.0,1769235784.064
2095699.0,1769235784.103
2095464.0,1769235784.143
2095831.0,1769235784.182
2096867.0,1769235784.222
2098688.0,1769235784.262
2100139.0,1769235784.303
2101591.0,1769235784.342
2101714.0,1769235784.382
2099317.0,1769235784.424
2095922.0,1769235784.463
2090822.0,1769235784.542
2087161.0,1769235784.623
2086568.0,1769235784.663
2088674.0,1769235784.582
2093498.0,1769235784.503
2086033.0,1769235784.702
2085107.0,1769235784.743
2084397.0,1769235784.784
2084299.0,1769235784.824
2084549.0,1769235784.862
2085120.0,1769235784.903
2086165.0,1769235784.942
2087534.0,1769235784.982
2087915.0,1769235785.024
2085115.0,1769235785.063
2081340.0,1769235785.103
2077682.0,1769235785.144
2073135.0,1769235785.222
2075006.0,1769235785.184
2072319.0,1769235785.263
2072447.0,1769235785.302
2072299.0,1769235785.343
2072605.0,1769235785.384
2072340.0,1769235785.424
2073177.0,1769235785.463
2073952.0,1769235785.505
2074136.0,1769235785.544
2075434.0,1769235785.582
2076307.0,1769235785.624
2075978.0,1769235785.662
2073703.0,1769235785.703
2070456.0,1769235785.744
2068219.0,1769235785.783
2066413.0,1769235785.824
2065515.0,1769235785.865
2065389.0,1769235785.902
2066055.0,1769235785.942
2066670.0,1769235785.984
2067193.0,1769235786.023
2067557.0,1769235786.063
2068102.0,1769235786.104
2069165.0,1769235786.143
2070804.0,1769235786.183
2072090.0,1769235786.225
2073481.0,1769235786.264
2072013.0,1769235786.31
2069763.0,1769235786.351
2068114.0,1769235786.39
2066678.0,1769235786.431
2066197.0,1769235786.471
2066023.0,1769235786.51
2066231.0,1769235786.55
2066443.0,1769235786.591
2066490.0,1769235786.631
2067344.0,1769235786.671
2068885.0,1769235786.712
2069925.0,1769235786.751
2071793.0,1769235786.79
2072949.0,1769235786.829
2073962.0,1769235786.868
2072646.0,1769235786.908
2070541.0,1769235786.949
2069505.0,1769235786.989
2068915.0,1769235787.03
2068662.0,1769235787.07
2069420.0,1769235787.109
2070599.0,1769235787.15
2071600.0,1769235787.189
2072312.0,1769235787.229
2073370.0,1769235787.268
2074515.0,1769235787.31
2075987.0,1769235787.349
2079186.0,1769235787.431
2080779.0,1769235787.47
2077321.0,1769235787.389
2081033.0,1769235787.51
2079906.0,1769235787.549
2078914.0,1769235787.588
2078805.0,1769235787.629
2078164.0,1769235787.67
2078319.0,1769235787.709
2079440.0,1769235787.749
2080350.0,1769235787.791
2081688.0,1769235787.831
2082851.0,1769235787.868
2084453.0,1769235787.909
2085865.0,1769235787.949
2087811.0,1769235787.989
2089419.0,1769235788.031
2091187.0,1769235788.069
2093272.0,1769235788.11
2094021.0,1769235788.151
2093119.0,1769235788.19
2092350.0,1769235788.229
2092295.0,1769235788.27
2092718.0,1769235788.309
2093063.0,1769235788.349
2094335.0,1769235788.39
2095877.0,1769235788.43
2097417.0,1769235788.47
2098971.0,1769235788.511
2100531.0,1769235788.55
2102396.0,1769235788.59
2104710.0,1769235788.63
2106658.0,1769235788.669
2108464.0,1769235788.709
2110688.0,1769235788.75
2112168.0,1769235788.79
2112803.0,1769235788.831
2111939.0,1769235788.871
2111540.0,1769235788.91
2111638.0,1769235788.949
2112097.0,1769235788.99
2112711.0,1769235789.03
2114119.0,1769235789.069
2115198.0,1769235789.111
2116502.0,1769235789.15
2117965.0,1769235789.19
2119110.0,1769235789.232
2120742.0,1769235789.269
2122573.0,1769235789.309
2124234.0,1769235789.35
2125731.0,1769235789.39
2127339.0,1769235789.431
2127300.0,1769235789.471
2126234.0,1769235789.511
2125708.0,1769235789.551
2125983.0,1769235789.59
2126227.0,1769235789.63
2127108.0,1769235789.67
2128268.0,1769235789.711
2129026.0,1769235789.75
2129908.0,1769235789.791
2130885.0,1769235789.832
2132467.0,1769235789.871
2133579.0,1769235789.909
2135626.0,1769235789.951
2137691.0,1769235789.99
2139546.0,1769235790.031
2140453.0,1769235790.071
2138751.0,1769235790.111
2136189.0,1769235790.151
2135300.0,1769235790.192
2134947.0,1769235790.232
2134919.0,1769235790.269
2135453.0,1769235790.311
2136838.0,1769235790.35
2138095.0,1769235790.39
2139339.0,1769235790.432
2140591.0,1769235790.471
2142287.0,1769235790.511
2144608.0,1769235790.552
2146852.0,1769235790.592
2148769.0,1769235790.63
2150077.0,1769235790.671
2152151.0,1769235790.71
2152706.0,1769235790.75
2152187.0,1769235790.792
2151216.0,1769235790.832
2150912.0,1769235790.871
2150536.0,1769235790.913
2150710.0,1769235790.95
2151126.0,1769235790.99
2152075.0,1769235791.032
2153220.0,1769235791.113
2152746.0,1769235791.071
2154604.0,1769235791.19
2153860.0,1769235791.15
2155922.0,1769235791.231
2157183.0,1769235791.271
2158286.0,1769235791.31
2159294.0,1769235791.351
2160656.0,1769235791.392
2160252.0,1769235791.432
2158404.0,1769235791.471
2157022.0,1769235791.513
2156302.0,1769235791.552
2155635.0,1769235791.592
2155986.0,1769235791.632
2156354.0,1769235791.67
2156836.0,1769235791.711
2157419.0,1769235791.752
2157731.0,1769235791.791
2158656.0,1769235791.832
2159377.0,1769235791.873
2160363.0,1769235791.912
2161173.0,1769235791.952
2162106.0,1769235791.991
2163379.0,1769235792.031
2164127.0,1769235792.071
2162773.0,1769235792.112
2160552.0,1769235792.151
2158896.0,1769235792.192
2157559.0,1769235792.234
2156336.0,1769235792.272
2155629.0,1769235792.312
2155647.0,1769235792.352
2154023.0,1769235792.391
2151062.0,1769235792.432
2147837.0,1769235792.472
2152478.0,1769235792.512
2161241.0,1769235792.552
2165499.0,1769235792.593
2167890.0,1769235792.633
2168471.0,1769235792.673
2167941.0,1769235792.712
2165019.0,1769235792.751
2161954.0,1769235792.791
2160155.0,1769235792.833
2159698.0,1769235792.872
2160374.0,1769235792.912
2160857.0,1769235792.953
2162048.0,1769235792.993
2162701.0,1769235793.032
2163657.0,1769235793.072
2164258.0,1769235793.111
2165060.0,1769235793.152
2166036.0,1769235793.193
2166973.0,1769235793.233
2168197.0,1769235793.272
2168975.0,1769235793.314
2168459.0,1769235793.353
2166118.0,1769235793.391
2163893.0,1769235793.433
2162438.0,1769235793.472
2160523.0,1769235793.553
2159838.0,1769235793.633
2160014.0,1769235793.592
2161366.0,1769235793.512
2159507.0,1769235793.71
2159546.0,1769235793.75
2159713.0,1769235793.674
2160234.0,1769235793.791
2160740.0,1769235793.832
2161613.0,1769235793.872
2162419.0,1769235793.912
2159198.0,1769235793.992
2155434.0,1769235794.034
2152096.0,1769235794.072
2149998.0,1769235794.112
2162051.0,1769235793.951
2147994.0,1769235794.154
2147075.0,1769235794.193
2145868.0,1769235794.234
2145554.0,1769235794.274
2144337.0,1769235794.312
2144017.0,1769235794.352
2143913.0,1769235794.393
2143992.0,1769235794.433
2144105.0,1769235794.473
2144881.0,1769235794.514
2145357.0,1769235794.553
2143639.0,1769235794.594
2139438.0,1769235794.635
2135902.0,1769235794.672
2132718.0,1769235794.712
2130542.0,1769235794.753
2128975.0,1769235794.793
2128271.0,1769235794.834
2127807.0,1769235794.874
2127012.0,1769235794.913
2126168.0,1769235794.954
2125516.0,1769235794.993
2125487.0,1769235795.033
2125826.0,1769235795.072
2126229.0,1769235795.114
2126880.0,1769235795.153
2126704.0,1769235795.193
2123709.0,1769235795.235
2119673.0,1769235795.274
2116535.0,1769235795.314
2113694.0,1769235795.353
2110951.0,1769235795.392
2110035.0,1769235795.433
2109288.0,1769235795.474
2108464.0,1769235795.513
2107116.0,1769235795.553
2106625.0,1769235795.595
2105896.0,1769235795.635
2105538.0,1769235795.674
2105730.0,1769235795.713
2105819.0,1769235795.753
2105026.0,1769235795.793
2101235.0,1769235795.835
2096636.0,1769235795.874
2092095.0,1769235795.914
2088554.0,1769235795.955
2085576.0,1769235795.994
2083931.0,1769235796.033
2082640.0,1769235796.074
2081384.0,1769235796.113
2080310.0,1769235796.153
2079047.0,1769235796.195
2078612.0,1769235796.235
2078631.0,1769235796.272
2078733.0,1769235796.313
2078868.0,1769235796.352
2078516.0,1769235796.393
2074543.0,1769235796.435
2069605.0,1769235796.473
2065288.0,1769235796.513
2061063.0,1769235796.554
2058146.0,1769235796.593
2056191.0,1769235796.634
2055474.0,1769235796.675
2054646.0,1769235796.714
2053887.0,1769235796.755
2052900.0,1769235796.796
2052562.0,1769235796.834
2053379.0,1769235796.873
2054290.0,1769235796.915
2055031.0,1769235796.954
2056393.0,1769235796.994
2056776.0,1769235797.036
2053878.0,1769235797.074
2050421.0,1769235797.115
2047867.0,1769235797.156
2045754.0,1769235797.193
2044271.0,1769235797.234
2043445.0,1769235797.275
2043836.0,1769235797.314
2043981.0,1769235797.354
2044091.0,1769235797.396
2044163.0,1769235797.435
2044692.0,1769235797.475
2045635.0,1769235797.516
2046676.0,1769235797.553
2047709.0,1769235797.594
2048890.0,1769235797.636
2050134.0,1769235797.674
2049912.0,1769235797.714
2047121.0,1769235797.756
2044833.0,1769235797.795
2042572.0,1769235797.836
2041239.0,1769235797.877
2040452.0,1769235797.914
2040536.0,1769235797.954
2041120.0,1769235797.995
2041745.0,1769235798.035
2042115.0,1769235798.075
2042694.0,1769235798.116
2043622.0,1769235798.155
2044948.0,1769235798.195
2046713.0,1769235798.237
2048300.0,1769235798.274
2049624.0,1769235798.308
2048510.0,1769235798.349
2046760.0,1769235798.388
2045674.0,1769235798.429
2045057.0,1769235798.469
2044912.0,1769235798.508
2046077.0,1769235798.548
2047011.0,1769235798.589
2047972.0,1769235798.629
2048884.0,1769235798.668
2050533.0,1769235798.71
2051694.0,1769235798.749
2053317.0,1769235798.789
2054723.0,1769235798.83
2056789.0,1769235798.869
2057788.0,1769235798.909
2057205.0,1769235798.95
2055284.0,1769235798.989
2054219.0,1769235799.028
2053692.0,1769235799.068
2053561.0,1769235799.108
2054931.0,1769235799.148
2056790.0,1769235799.189
2058138.0,1769235799.229
2059378.0,1769235799.269
2061120.0,1769235799.31
2063056.0,1769235799.349
2065186.0,1769235799.387
2066748.0,1769235799.429
2069451.0,1769235799.468
2072198.0,1769235799.508
2074267.0,1769235799.549
2074199.0,1769235799.589
2073603.0,1769235799.63
2073587.0,1769235799.67
2073829.0,1769235799.709
2074614.0,1769235799.748
2075691.0,1769235799.789
2077394.0,1769235799.829
2079297.0,1769235799.868
2080906.0,1769235799.91
2082772.0,1769235799.949
2084414.0,1769235799.989
2086940.0,1769235800.031
2089324.0,1769235800.068
2091470.0,1769235800.108
2094265.0,1769235800.149
2096240.0,1769235800.188
2096237.0,1769235800.229
2095820.0,1769235800.27
2096077.0,1769235800.309
2096454.0,1769235800.35
2096701.0,1769235800.391
2097870.0,1769235800.429
2099098.0,1769235800.468
2100640.0,1769235800.509
2102118.0,1769235800.549
2104074.0,1769235800.589
2106230.0,1769235800.631
2108735.0,1769235800.669
2111005.0,1769235800.71
2113045.0,1769235800.751
2114909.0,1769235800.788
2115518.0,1769235800.829
2114772.0,1769235800.87
2114184.0,1769235800.909
2114111.0,1769235800.949
2113797.0,1769235800.99
2113668.0,1769235801.03
2112686.0,1769235801.07
2111280.0,1769235801.111
2109392.0,1769235801.148
2109968.0,1769235801.189
2115514.0,1769235801.231
2119578.0,1769235801.269
2122393.0,1769235801.309
2124248.0,1769235801.351
2125064.0,1769235801.387
2124235.0,1769235801.429
2124269.0,1769235801.508
2122790.0,1769235801.47
2127009.0,1769235801.549
2129616.0,1769235801.59
2131656.0,1769235801.63
2134212.0,1769235801.669
2136640.0,1769235801.71
2138653.0,1769235801.75
2141161.0,1769235801.79
2143261.0,1769235801.832
2145770.0,1769235801.871
2147979.0,1769235801.909
2150112.0,1769235801.95
2152558.0,1769235801.989
2154372.0,1769235802.03
2154264.0,1769235802.071
2153813.0,1769235802.11
2153548.0,1769235802.15
2153904.0,1769235802.192
2154028.0,1769235802.231
2155053.0,1769235802.269
2157860.0,1769235802.349
2156450.0,1769235802.31
2158942.0,1769235802.39
2160381.0,1769235802.432
2161948.0,1769235802.47
2163398.0,1769235802.511
2164882.0,1769235802.552
2166292.0,1769235802.591
2167616.0,1769235802.63
2167637.0,1769235802.67
2166240.0,1769235802.71
2164984.0,1769235802.75
2164180.0,1769235802.791
2163528.0,1769235802.831
2163191.0,1769235802.871
2163756.0,1769235802.912
2164113.0,1769235802.951
2164741.0,1769235802.989
2165142.0,1769235803.031
2165918.0,1769235803.07
2166802.0,1769235803.11
2167940.0,1769235803.151
2168599.0,1769235803.191
2170161.0,1769235803.232
2171109.0,1769235803.272
2170317.0,1769235803.311
2168460.0,1769235803.35
2166375.0,1769235803.391
2165121.0,1769235803.431
2164183.0,1769235803.47
2163827.0,1769235803.512
2164186.0,1769235803.551
2164915.0,1769235803.591
2164899.0,1769235803.633
2165501.0,1769235803.671
2165845.0,1769235803.71
2166941.0,1769235803.751
2167396.0,1769235803.79
2167892.0,1769235803.831
2168798.0,1769235803.872
2168502.0,1769235803.909
2166000.0,1769235803.949
2162960.0,1769235803.99
2161056.0,1769235804.03
2159299.0,1769235804.07
2157998.0,1769235804.111
2157354.0,1769235804.15
2156905.0,1769235804.19
2156532.0,1769235804.232
2155810.0,1769235804.271
2155386.0,1769235804.311
2155282.0,1769235804.352
2155531.0,1769235804.392
2155396.0,1769235804.433
2156192.0,1769235804.471
2155455.0,1769235804.51
2152557.0,1769235804.551
2148677.0,1769235804.592
2145586.0,1769235804.632
2143085.0,1769235804.671
2140159.0,1769235804.713
2138806.0,1769235804.752
2138171.0,1769235804.792
2137159.0,1769235804.832
2136629.0,1769235804.871
2136018.0,1769235804.911
2135644.0,1769235804.952
2135348.0,1769235804.991
2135200.0,1769235805.032
2135238.0,1769235805.073
2135487.0,1769235805.112
2133265.0,1769235805.152
2129658.0,1769235805.192
2126124.0,1769235805.231
2123061.0,1769235805.271
2120764.0,1769235805.312
2119540.0,1769235805.352
2119178.0,1769235805.392
2119121.0,1769235805.434
2118196.0,1769235805.472
2117939.0,1769235805.513
2117413.0,1769235805.552
2117522.0,1769235805.591
2117823.0,1769235805.632
2118091.0,1769235805.673
2118103.0,1769235805.712
2116671.0,1769235805.752
2113146.0,1769235805.793
2110037.0,1769235805.833
2107405.0,1769235805.871
2105651.0,1769235805.912
2104944.0,1769235805.951
2104600.0,1769235805.992
2104204.0,1769235806.034
2103897.0,1769235806.072
2103782.0,1769235806.112
2103638.0,1769235806.154
2104041.0,1769235806.193
2104718.0,1769235806.232
2105172.0,1769235806.272
2106372.0,1769235806.312
2105116.0,1769235806.352
2102026.0,1769235806.393
2099633.0,1769235806.433
2097470.0,1769235806.47
2096037.0,1769235806.511
2095682.0,1769235806.55
2095652.0,1769235806.591
2096151.0,1769235806.633
2095903.0,1769235806.671
2096061.0,1769235806.712
2096815.0,1769235806.753
2097198.0,1769235806.792
2097997.0,1769235806.833
2099485.0,1769235806.874
2100685.0,1769235806.913
2100386.0,1769235806.953
2097802.0,1769235806.995
2095134.0,1769235807.032
2092702.0,1769235807.072
2091212.0,1769235807.113
2089647.0,1769235807.152
2089534.0,1769235807.193
2090008.0,1769235807.235
2090189.0,1769235807.273
2090409.0,1769235807.313
2091079.0,1769235807.355
2091881.0,1769235807.392
2092815.0,1769235807.433
2094127.0,1769235807.473
2095159.0,1769235807.513
2096398.0,1769235807.553
2096676.0,1769235807.594
2094657.0,1769235807.634
2091370.0,1769235807.674
2088529.0,1769235807.715
2086188.0,1769235807.752
2083263.0,1769235807.834
2084333.0,1769235807.792
2083042.0,1769235807.873
2083324.0,1769235807.913
2083295.0,1769235807.954
2083707.0,1769235807.994
2084034.0,1769235808.035
2084940.0,1769235808.073
2085929.0,1769235808.112
2087308.0,1769235808.153
2088301.0,1769235808.194
2089025.0,1769235808.234
2087050.0,1769235808.273
2084991.0,1769235808.315
2083037.0,1769235808.354
2081980.0,1769235808.394
2079896.0,1769235808.434
2076016.0,1769235808.473
2071596.0,1769235808.513
2073938.0,1769235808.554
2080784.0,1769235808.593
2083922.0,1769235808.634
2085436.0,1769235808.675
2087471.0,1769235808.714
2087403.0,1769235808.754
2087833.0,1769235808.794
2089023.0,1769235808.833
2090136.0,1769235808.873
2089820.0,1769235808.914
2090351.0,1769235808.954
2091497.0,1769235808.994
2092392.0,1769235809.033
2093862.0,1769235809.072
2096165.0,1769235809.113
2098303.0,1769235809.154
2100258.0,1769235809.193
2102205.0,1769235809.234
2104021.0,1769235809.274
2106131.0,1769235809.313
2108392.0,1769235809.354
2110860.0,1769235809.395
2112648.0,1769235809.435
2114058.0,1769235809.475
2112421.0,1769235809.516
2110281.0,1769235809.553
2109100.0,1769235809.593
2109153.0,1769235809.635
2109379.0,1769235809.674
2110155.0,1769235809.714
2111130.0,1769235809.755
2112467.0,1769235809.795
2113565.0,1769235809.836
2114935.0,1769235809.874
2116541.0,1769235809.913
2117533.0,1769235809.954
2119109.0,1769235809.995
2120462.0,1769235810.035
2121596.0,1769235810.074
2121911.0,1769235810.116
2119907.0,1769235810.155
2118382.0,1769235810.195
2117220.0,1769235810.235
2116151.0,1769235810.274
2115442.0,1769235810.317
2115496.0,1769235810.358
2115929.0,1769235810.397
2115999.0,1769235810.438
2116236.0,1769235810.478
2116960.0,1769235810.517
2118227.0,1769235810.557
2119435.0,1769235810.598
2120390.0,1769235810.638
2122092.0,1769235810.677
2122481.0,1769235810.718
2120321.0,1769235810.797
2121240.0,1769235810.757
2119166.0,1769235810.837
2118971.0,1769235810.876
2118939.0,1769235810.916
2120090.0,1769235810.958
2121064.0,1769235810.997
2121736.0,1769235811.038
2122465.0,1769235811.078
2122970.0,1769235811.117
2124270.0,1769235811.158
2125331.0,1769235811.197
2127032.0,1769235811.237
2128799.0,1769235811.276
2129386.0,1769235811.318
2128112.0,1769235811.357
2126632.0,1769235811.397
2125583.0,1769235811.439
2125112.0,1769235811.478
2124724.0,1769235811.518
2125535.0,1769235811.557
2125720.0,1769235811.596
2126361.0,1769235811.637
2126785.0,1769235811.678
2127625.0,1769235811.717
2128298.0,1769235811.757
2129066.0,1769235811.799
2130607.0,1769235811.839
2131547.0,1769235811.878
2131843.0,1769235811.917
2130350.0,1769235811.957
2128323.0,1769235811.997
2126959.0,1769235812.039
2125953.0,1769235812.077
2125352.0,1769235812.118
2125484.0,1769235812.159
2126361.0,1769235812.198
2126795.0,1769235812.239
2127315.0,1769235812.278
2127886.0,1769235812.317
2128710.0,1769235812.357
2129632.0,1769235812.398
2131167.0,1769235812.438
2132367.0,1769235812.478
2133855.0,1769235812.519
2132567.0,1769235812.558
2130072.0,1769235812.599
2128243.0,1769235812.638
2126921.0,1769235812.677
2125379.0,1769235812.717
2124895.0,1769235812.758
2125277.0,1769235812.839
2125621.0,1769235812.919
2125750.0,1769235812.959
2126445.0,1769235812.998
2127230.0,1769235813.038
2125132.0,1769235812.798
2125369.0,1769235812.879
2128020.0,1769235813.077
2129162.0,1769235813.119
2129986.0,1769235813.158
2130505.0,1769235813.198
2128416.0,1769235813.24
2126574.0,1769235813.273
2125160.0,1769235813.313
2124076.0,1769235813.355
2123568.0,1769235813.394
2123731.0,1769235813.434
2124720.0,1769235813.475
2125593.0,1769235813.514
2126171.0,1769235813.554
2127134.0,1769235813.595
2127810.0,1769235813.635
2128958.0,1769235813.674
2130584.0,1769235813.715
2131387.0,1769235813.754
2132781.0,1769235813.794
2134437.0,1769235813.836
2135131.0,1769235813.874
2133217.0,1769235813.914
2131104.0,1769235813.955
2129365.0,1769235813.994
2128206.0,1769235814.03
2127588.0,1769235814.064
2127696.0,1769235814.103
2127819.0,1769235814.141
2128358.0,1769235814.178
2128776.0,1769235814.218
2129373.0,1769235814.258
2130376.0,1769235814.3
2130878.0,1769235814.339
2132160.0,1769235814.379
2133542.0,1769235814.421
2134337.0,1769235814.459
2134359.0,1769235814.5
2131986.0,1769235814.541
2130306.0,1769235814.58
2129233.0,1769235814.621
2128445.0,1769235814.66
2127987.0,1769235814.699
2128495.0,1769235814.739
2128688.0,1769235814.781
2128601.0,1769235814.821
2129190.0,1769235814.86
2129589.0,1769235814.901
2130565.0,1769235814.941
2131490.0,1769235814.979
2132265.0,1769235815.021
2133537.0,1769235815.059
2133458.0,1769235815.1
2131384.0,1769235815.141
2129804.0,1769235815.18
2128606.0,1769235815.221
2127828.0,1769235815.262
2128088.0,1769235815.301
2128730.0,1769235815.339
2129602.0,1769235815.381
2130287.0,1769235815.42
2130768.0,1769235815.46
2131714.0,1769235815.501
2133464.0,1769235815.54
2134753.0,1769235815.581
2135653.0,1769235815.623
2136620.0,1769235815.661
2136819.0,1769235815.699
2134945.0,1769235815.741
2132483.0,1769235815.78
2130295.0,1769235815.821
2128677.0,1769235815.861
2127345.0,1769235815.901
2127358.0,1769235815.941
2127139.0,1769235815.982
2127545.0,1769235816.02
2127368.0,1769235816.06
2127985.0,1769235816.101
2128321.0,1769235816.14
2128614.0,1769235816.181
2129451.0,1769235816.223
2130686.0,1769235816.261
2131255.0,1769235816.301
2130044.0,1769235816.343
2127360.0,1769235816.38
2124370.0,1769235816.421
2122469.0,1769235816.461
2120860.0,1769235816.5
2119827.0,1769235816.541
2119696.0,1769235816.582
2119492.0,1769235816.622
2119676.0,1769235816.662
2119443.0,1769235816.703
2119615.0,1769235816.738
2120080.0,1769235816.778
2120891.0,1769235816.82
2121742.0,1769235816.859
2122312.0,1769235816.9
2122548.0,1769235816.941
2120737.0,1769235816.98
2117671.0,1769235817.021
2115060.0,1769235817.062
2113073.0,1769235817.101
2111792.0,1769235817.141
2111243.0,1769235817.183
2110899.0,1769235817.222
2110331.0,1769235817.262
2110304.0,1769235817.303
2110223.0,1769235817.34
2111056.0,1769235817.381
2111861.0,1769235817.423
2112953.0,1769235817.461
2113897.0,1769235817.501
2114708.0,1769235817.543
2113998.0,1769235817.582
2110717.0,1769235817.623
2107422.0,1769235817.663
2104543.0,1769235817.7
2102630.0,1769235817.741
2101657.0,1769235817.782
2101233.0,1769235817.822
2101119.0,1769235817.862
2100824.0,1769235817.903
2100512.0,1769235817.942
2100308.0,1769235817.982
2100438.0,1769235818.022
2101184.0,1769235818.061
2101758.0,1769235818.101
2102431.0,1769235818.143
2102240.0,1769235818.182
2099235.0,1769235818.223
2095245.0,1769235818.263
2091996.0,1769235818.302
2089512.0,1769235818.343
2087104.0,1769235818.382
2086092.0,1769235818.461
2086149.0,1769235818.422
2085742.0,1769235818.503
2085499.0,1769235818.542
2085387.0,1769235818.582
2085695.0,1769235818.624
2085891.0,1769235818.663
2086893.0,1769235818.703
2087311.0,1769235818.742
2088543.0,1769235818.781
2088349.0,1769235818.822
2085728.0,1769235818.863
2082255.0,1769235818.902
2078817.0,1769235818.943
2076373.0,1769235818.984
2074442.0,1769235819.024
2073584.0,1769235819.061
2073090.0,1769235819.102
2072630.0,1769235819.142
2072251.0,1769235819.182
2072289.0,1769235819.224
2072692.0,1769235819.262
2073181.0,1769235819.299
2073762.0,1769235819.34
2074792.0,1769235819.379
2075680.0,1769235819.421
2076322.0,1769235819.462
2074828.0,1769235819.501
2071404.0,1769235819.542
2068080.0,1769235819.583
2065136.0,1769235819.623
2063326.0,1769235819.662
2062406.0,1769235819.703
2061892.0,1769235819.743
2062043.0,1769235819.783
2061955.0,1769235819.825
2061873.0,1769235819.864
2062002.0,1769235819.902
2062909.0,1769235819.943
2063360.0,1769235819.982
2064455.0,1769235820.023
2066457.0,1769235820.064
2067666.0,1769235820.103
2067060.0,1769235820.143
2064784.0,1769235820.185
2062750.0,1769235820.224
2061669.0,1769235820.262
2061038.0,1769235820.303
2061037.0,1769235820.342
2062222.0,1769235820.383
2062632.0,1769235820.425
2063528.0,1769235820.463
2064339.0,1769235820.504
2065838.0,1769235820.545
2066713.0,1769235820.584
2068092.0,1769235820.623
2069826.0,1769235820.663
2071801.0,1769235820.703
2073158.0,1769235820.743
2072133.0,1769235820.784
2069611.0,1769235820.824
2067354.0,1769235820.864
2066003.0,1769235820.905
2064682.0,1769235820.942
2064025.0,1769235820.983
2064068.0,1769235821.025
2064414.0,1769235821.063
2065333.0,1769235821.103
2065899.0,1769235821.145
2066899.0,1769235821.184
2067719.0,1769235821.225
2068973.0,1769235821.265
2070179.0,1769235821.302
2071733.0,1769235821.343
2073232.0,1769235821.384
2072798.0,1769235821.424
2070131.0,1769235821.464
2067750.0,1769235821.505
2065865.0,1769235821.544
2064486.0,1769235821.584
2063828.0,1769235821.626
2064131.0,1769235821.663
2064746.0,1769235821.703
2065082.0,1769235821.744
2064780.0,1769235821.784
2065220.0,1769235821.825
2064931.0,1769235821.862
2065104.0,1769235821.902
2065457.0,1769235821.943
2066286.0,1769235821.984
2066545.0,1769235822.024
2065353.0,1769235822.063
2062881.0,1769235822.104
2063322.0,1769235822.144
2065043.0,1769235822.184
2065188.0,1769235822.226
2065787.0,1769235822.264
2066599.0,1769235822.307
2066710.0,1769235822.348
2068427.0,1769235822.387
2070325.0,1769235822.428
2072909.0,1769235822.468
2075912.0,1769235822.507
2078935.0,1769235822.547
2082338.0,1769235822.588
2085526.0,1769235822.628
2088461.0,1769235822.667
2090087.0,1769235822.708
2089301.0,1769235822.747
2085908.0,1769235822.786
2082899.0,1769235822.828
2081749.0,1769235822.867
2081747.0,1769235822.907
2082307.0,1769235822.948
2084018.0,1769235822.988
2085707.0,1769235823.029
2087461.0,1769235823.069
2089141.0,1769235823.108
2091003.0,1769235823.147
2092569.0,1769235823.188
2094534.0,1769235823.228
2096668.0,1769235823.267
2098684.0,1769235823.309
2099057.0,1769235823.348
2097363.0,1769235823.388
2095913.0,1769235823.43
2094405.0,1769235823.469
2093981.0,1769235823.507
2094290.0,1769235823.548
2095040.0,1769235823.587
2096193.0,1769235823.628
2097384.0,1769235823.669
2098244.0,1769235823.708
2099329.0,1769235823.748
2100771.0,1769235823.79
2102583.0,1769235823.828
2104026.0,1769235823.867
2105891.0,1769235823.908
2107221.0,1769235823.948
2106343.0,1769235823.988
2104920.0,1769235824.03
2103686.0,1769235824.068
2103117.0,1769235824.109
2102655.0,1769235824.15
2103004.0,1769235824.187
2103957.0,1769235824.228
2105330.0,1769235824.269
2105886.0,1769235824.308
2106999.0,1769235824.348
2108516.0,1769235824.389
2110021.0,1769235824.426
2111413.0,1769235824.466
2113341.0,1769235824.508
2114993.0,1769235824.547
2116386.0,1769235824.587
2115550.0,1769235824.629
2114025.0,1769235824.668
2112309.0,1769235824.708
2111499.0,1769235824.749
2111009.0,1769235824.789
2111327.0,1769235824.83
2112267.0,1769235824.87
2113537.0,1769235824.909
2114531.0,1769235824.948
2115527.0,1769235824.989
2117132.0,1769235825.029
2118252.0,1769235825.068
2119905.0,1769235825.11
2121656.0,1769235825.149
2123232.0,1769235825.189
2125273.0,1769235825.231
2125909.0,1769235825.269
2124014.0,1769235825.308
2121703.0,1769235825.349
2120074.0,1769235825.388
2119573.0,1769235825.429
2119188.0,1769235825.47
2119877.0,1769235825.509
2120271.0,1769235825.549
2121167.0,1769235825.591
2121944.0,1769235825.63
2122814.0,1769235825.668
2123852.0,1769235825.709
2124869.0,1769235825.748
2126194.0,1769235825.789
2127943.0,1769235825.831
2128913.0,1769235825.869
2128443.0,1769235825.91
2126294.0,1769235825.988
2126780.0,1769235825.951
2126097.0,1769235826.029
2126437.0,1769235826.07
2127384.0,1769235826.109
2128435.0,1769235826.149
2129209.0,1769235826.19
2129654.0,1769235826.23
2129377.0,1769235826.27
2126608.0,1769235826.311
2122096.0,1769235826.348
2124914.0,1769235826.43
2119728.0,1769235826.389
2131594.0,1769235826.509
2130105.0,1769235826.469
2132301.0,1769235826.551
2130464.0,1769235826.59
2127590.0,1769235826.631
2126380.0,1769235826.671
2127159.0,1769235826.708
2128243.0,1769235826.749
2129781.0,1769235826.79
2131619.0,1769235826.83
2133329.0,1769235826.87
2134925.0,1769235826.911
2135450.0,1769235826.951
2134976.0,1769235826.991
2134462.0,1769235827.029
2134637.0,1769235827.067
2133636.0,1769235827.107
2132360.0,1769235827.149
2131970.0,1769235827.188
2132167.0,1769235827.229
2132165.0,1769235827.27
2132785.0,1769235827.309
2133459.0,1769235827.35
2132547.0,1769235827.391
2131915.0,1769235827.431
2132212.0,1769235827.47
2133452.0,1769235827.511
2134823.0,1769235827.551
2136689.0,1769235827.589
2138455.0,1769235827.631
2139922.0,1769235827.669
2139940.0,1769235827.71
2138595.0,1769235827.751
2137193.0,1769235827.79
2136633.0,1769235827.831
2136464.0,1769235827.872
2136343.0,1769235827.909
2137301.0,1769235827.95
2137959.0,1769235827.991
2138430.0,1769235828.031
2139237.0,1769235828.07
2140120.0,1769235828.111
2140861.0,1769235828.151
2141735.0,1769235828.191
2142727.0,1769235828.233
2144188.0,1769235828.269
2144518.0,1769235828.31
2143304.0,1769235828.351
2140989.0,1769235828.39
2138842.0,1769235828.431
2137132.0,1769235828.472
2136088.0,1769235828.511
2135665.0,1769235828.551
2135934.0,1769235828.592
2136440.0,1769235828.63
2137338.0,1769235828.67
2137699.0,1769235828.711
2138680.0,1769235828.75
2139788.0,1769235828.791
2141099.0,1769235828.833
2142653.0,1769235828.871
2143931.0,1769235828.912
2144732.0,1769235828.951
2143199.0,1769235828.99
2141657.0,1769235829.031
2139317.0,1769235829.111
2139258.0,1769235829.192
2139460.0,1769235829.232
2138705.0,1769235829.151
2140358.0,1769235829.071
2139816.0,1769235829.272
2140052.0,1769235829.311
2140659.0,1769235829.35
2141442.0,1769235829.39
2142463.0,1769235829.432
2143518.0,1769235829.471
2144759.0,1769235829.511
2144516.0,1769235829.549
2142849.0,1769235829.589
2140992.0,1769235829.63
2139795.0,1769235829.671
2139004.0,1769235829.71
2138585.0,1769235829.75
2139138.0,1769235829.792
2139538.0,1769235829.832
2139593.0,1769235829.871
2140217.0,1769235829.912
2140775.0,1769235829.952
2141591.0,1769235829.992
2142415.0,1769235830.034
2143422.0,1769235830.07
2143823.0,1769235830.111
2143227.0,1769235830.152
2141075.0,1769235830.191
2138435.0,1769235830.232
2136317.0,1769235830.273
2134470.0,1769235830.312
2133532.0,1769235830.352
2132872.0,1769235830.393
2133136.0,1769235830.431
2132602.0,1769235830.471
2133047.0,1769235830.512
2133158.0,1769235830.551
2133963.0,1769235830.592
2134872.0,1769235830.634
2135830.0,1769235830.672
2137422.0,1769235830.712
2138776.0,1769235830.754
2137179.0,1769235830.791
2135158.0,1769235830.832
2132958.0,1769235830.872
2131527.0,1769235830.911
2130422.0,1769235830.952
2129663.0,1769235830.993
2129933.0,1769235831.033
2130377.0,1769235831.073
2130733.0,1769235831.114
2131490.0,1769235831.151
2132431.0,1769235831.191
2132949.0,1769235831.233
2134457.0,1769235831.272
2135518.0,1769235831.312
2136741.0,1769235831.353
2137458.0,1769235831.392
2136283.0,1769235831.433
2133946.0,1769235831.474
2132145.0,1769235831.511
2130675.0,1769235831.551
2129465.0,1769235831.593
2128903.0,1769235831.632
2129396.0,1769235831.672
2129687.0,1769235831.713
2129835.0,1769235831.753
2130458.0,1769235831.793
2130744.0,1769235831.833
2131192.0,1769235831.871
2131405.0,1769235831.912
2131478.0,1769235831.953
2131520.0,1769235831.992
2129987.0,1769235832.033
2127122.0,1769235832.073
2124346.0,1769235832.109
2122317.0,1769235832.151
2121010.0,1769235832.192
2120396.0,1769235832.232
2120549.0,1769235832.271
2120659.0,1769235832.313
2121082.0,1769235832.352
2121450.0,1769235832.392
2122169.0,1769235832.434
2123145.0,1769235832.473
2124341.0,1769235832.513
2125450.0,1769235832.554
2126516.0,1769235832.593
2125917.0,1769235832.632
2123749.0,1769235832.673
2121675.0,1769235832.712
2120384.0,1769235832.753
2119189.0,1769235832.794
2118601.0,1769235832.834
2119062.0,1769235832.873
2119615.0,1769235832.915
2119588.0,1769235832.952
2119794.0,1769235832.992
2120722.0,1769235833.034
2121174.0,1769235833.073
2122285.0,1769235833.113
2123163.0,1769235833.154
2124391.0,1769235833.193
2124406.0,1769235833.234
2122017.0,1769235833.275
2119626.0,1769235833.312
2117627.0,1769235833.352
2115935.0,1769235833.394
2114799.0,1769235833.433
2114242.0,1769235833.473
2114561.0,1769235833.514
2114389.0,1769235833.554
2114572.0,1769235833.594
2114880.0,1769235833.636
2115207.0,1769235833.672
2115527.0,1769235833.713
2116553.0,1769235833.754
2117524.0,1769235833.793
2118122.0,1769235833.834
2117944.0,1769235833.875
2116003.0,1769235833.914
2113407.0,1769235833.954
2111648.0,1769235833.994
2110703.0,1769235834.033
2110116.0,1769235834.073
2110748.0,1769235834.114
2111429.0,1769235834.153
2111604.0,1769235834.194
2111255.0,1769235834.236
2111539.0,1769235834.274
2112576.0,1769235834.318
2113693.0,1769235834.359
2114415.0,1769235834.398
2116037.0,1769235834.438
2116414.0,1769235834.479
2114966.0,1769235834.518
2113289.0,1769235834.558
2112690.0,1769235834.599
2112033.0,1769235834.639
2112565.0,1769235834.678
2113312.0,1769235834.719
2113996.0,1769235834.758
2114993.0,1769235834.799
2115659.0,1769235834.839
2117238.0,1769235834.877
2118845.0,1769235834.917
2120945.0,1769235834.959
2123005.0,1769235834.998
2125117.0,1769235835.039
2126974.0,1769235835.079
2126922.0,1769235835.119
2125933.0,1769235835.159
2125202.0,1769235835.198
2125097.0,1769235835.238
2125212.0,1769235835.278
2125620.0,1769235835.319
2126886.0,1769235835.358
2128123.0,1769235835.398
2129354.0,1769235835.44
2130192.0,1769235835.479
2131752.0,1769235835.519
2133655.0,1769235835.558
2135035.0,1769235835.597
2137238.0,1769235835.639
2139234.0,1769235835.679
2140567.0,1769235835.718
2139427.0,1769235835.759
2138351.0,1769235835.8
2138338.0,1769235835.84
2138434.0,1769235835.877
2139802.0,1769235835.958
2138468.0,1769235835.919
2141087.0,1769235835.998
2141829.0,1769235836.04
2143986.0,1769235836.119
2142638.0,1769235836.079
2146464.0,1769235836.199
2145179.0,1769235836.16
2146821.0,1769235836.238
2147497.0,1769235836.279
2148469.0,1769235836.318
2147924.0,1769235836.359
2146559.0,1769235836.4
2145707.0,1769235836.44
2145773.0,1769235836.479
2146073.0,1769235836.52
2147037.0,1769235836.56
2148575.0,1769235836.598
2149935.0,1769235836.64
2150946.0,1769235836.678
2151965.0,1769235836.719
2153498.0,1769235836.76
2155044.0,1769235836.799
2156835.0,1769235836.84
2159474.0,1769235836.881
2161640.0,1769235836.918
2162997.0,1769235836.958
2162636.0,1769235837.0
2162007.0,1769235837.039
2162246.0,1769235837.079
2162891.0,1769235837.12
2163320.0,1769235837.159
2164712.0,1769235837.199
2166021.0,1769235837.238
2167421.0,1769235837.276
2168566.0,1769235837.316
2169911.0,1769235837.358
2170634.0,1769235837.398
2171620.0,1769235837.439
2172605.0,1769235837.479
2173473.0,1769235837.518
2174993.0,1769235837.559
2175200.0,1769235837.6
2173974.0,1769235837.64
2173542.0,1769235837.68
2173677.0,1769235837.721
2173993.0,1769235837.76
2174763.0,1769235837.799
2175885.0,1769235837.84
2176723.0,1769235837.879
2177682.0,1769235837.919
2178598.0,1769235837.961
2179525.0,1769235838.0
2180781.0,1769235838.041
2181735.0,1769235838.081
2183049.0,1769235838.12
2184439.0,1769235838.159
2183594.0,1769235838.2
2181890.0,1769235838.24
2180299.0,1769235838.279
2179020.0,1769235838.321
2178464.0,1769235838.36
2178375.0,1769235838.4
2178210.0,1769235838.442
2178567.0,1769235838.481
2178960.0,1769235838.519
2179291.0,1769235838.56
2178660.0,1769235838.599
2179395.0,1769235838.64
2180828.0,1769235838.681
2181676.0,1769235838.72
2181853.0,1769235838.761
2179497.0,1769235838.802
2177656.0,1769235838.84
2175858.0,1769235838.879
2174340.0,1769235838.921
2173262.0,1769235838.96
2173560.0,1769235839.0
2173997.0,1769235839.042
2173903.0,1769235839.081
2173914.0,1769235839.121
2174827.0,1769235839.162
2175813.0,1769235839.199
2176780.0,1769235839.24
2178242.0,1769235839.281
2179625.0,1769235839.32
2181004.0,1769235839.36
2179542.0,1769235839.402
2178105.0,1769235839.441
2176716.0,1769235839.481
2175643.0,1769235839.522
2174858.0,1769235839.559
2174673.0,1769235839.6
2175086.0,1769235839.642
2174872.0,1769235839.68
2174718.0,1769235839.721
2175277.0,1769235839.764
2175800.0,1769235839.798
2176777.0,1769235839.84
2177649.0,1769235839.88
2178512.0,1769235839.92
2179904.0,1769235839.96
2179300.0,1769235840.001
2176463.0,1769235840.041
2173529.0,1769235840.081
2171195.0,1769235840.122
2169089.0,1769235840.161
2167603.0,1769235840.202
2166954.0,1769235840.243
2166838.0,1769235840.28
2166397.0,1769235840.32
2165630.0,1769235840.361
2165589.0,1769235840.401
2165681.0,1769235840.442
2165989.0,1769235840.482
2166248.0,1769235840.521
2167253.0,1769235840.562
2167781.0,1769235840.603
2166093.0,1769235840.641
2162372.0,1769235840.68
2158697.0,1769235840.721
2155452.0,1769235840.76
2151536.0,1769235840.801
2149276.0,1769235840.843
2148295.0,1769235840.921
2146575.0,1769235841.002
2145854.0,1769235841.041
2145167.0,1769235841.081
2144483.0,1769235841.121
2147777.0,1769235840.963
2148552.0,1769235840.881
2144365.0,1769235841.161
2144325.0,1769235841.202
2143956.0,1769235841.242
2140240.0,1769235841.282
2136435.0,1769235841.323
2132637.0,1769235841.362
2129611.0,1769235841.4
2126751.0,1769235841.481
2126122.0,1769235841.521
2125071.0,1769235841.563
2124031.0,1769235841.602
2127698.0,1769235841.442
2122923.0,1769235841.643
2122801.0,1769235841.683
2122859.0,1769235841.722
2123770.0,1769235841.802
2124004.0,1769235841.842
2122775.0,1769235841.881
2118402.0,1769235841.922
2114112.0,1769235841.961
2123429.0,1769235841.76
2110253.0,1769235842.001
2105177.0,1769235842.081
2104616.0,1769235842.121
2104373.0,1769235842.162
2103781.0,1769235842.201
2103216.0,1769235842.242
2107405.0,1769235842.043
2102775.0,1769235842.282
2102769.0,1769235842.321
2102696.0,1769235842.362
2102600.0,1769235842.403
2103390.0,1769235842.442
2103001.0,1769235842.482
2100397.0,1769235842.524
2095280.0,1769235842.563
2090869.0,1769235842.601
2087443.0,1769235842.643
2084520.0,1769235842.682
2082380.0,1769235842.722
2081036.0,1769235842.763
2080266.0,1769235842.802
2079265.0,1769235842.844
2078572.0,1769235842.884
2078152.0,1769235842.921
2078256.0,1769235842.962
2078724.0,1769235843.003
2079545.0,1769235843.043
2079822.0,1769235843.082
2080309.0,1769235843.124
2077995.0,1769235843.163
2073151.0,1769235843.203
2068280.0,1769235843.245
2063328.0,1769235843.281
2058484.0,1769235843.322
2053450.0,1769235843.402
2053468.0,1769235843.363
2056007.0,1769235843.443
2059569.0,1769235843.484
2061991.0,1769235843.523
2063278.0,1769235843.563
2062919.0,1769235843.605
2062578.0,1769235843.642
2063599.0,1769235843.682
2065341.0,1769235843.723
2068086.0,1769235843.762
2070661.0,1769235843.803
2071644.0,1769235843.845
2066139.0,1769235843.924
2068791.0,1769235843.883
2063789.0,1769235843.963
2062387.0,1769235844.002
2061170.0,1769235844.043
2061485.0,1769235844.084
2061489.0,1769235844.123
2061876.0,1769235844.163
2061808.0,1769235844.204
2062359.0,1769235844.244
2062955.0,1769235844.284
2064278.0,1769235844.323
2066021.0,1769235844.362
2067476.0,1769235844.403
2069122.0,1769235844.445
2069776.0,1769235844.483
2067547.0,1769235844.523
2063968.0,1769235844.565
2062208.0,1769235844.604
2060572.0,1769235844.645
2059921.0,1769235844.683
2060608.0,1769235844.722
2061283.0,1769235844.763
2061521.0,1769235844.804
2061971.0,1769235844.844
2062307.0,1769235844.884
2063571.0,1769235844.923
2064239.0,1769235844.962
2065404.0,1769235845.002
2066805.0,1769235845.044
2067070.0,1769235845.083
2064917.0,1769235845.123
2061894.0,1769235845.165
2059772.0,1769235845.204
2058608.0,1769235845.245
2058409.0,1769235845.285
2058567.0,1769235845.324
2059532.0,1769235845.363
2060046.0,1769235845.404
2060493.0,1769235845.444
2061415.0,1769235845.483
2062471.0,1769235845.525
2063711.0,1769235845.564
2065337.0,1769235845.604
2067047.0,1769235845.646
2068351.0,1769235845.685
2067353.0,1769235845.723
2064954.0,1769235845.764
2063655.0,1769235845.803
2062726.0,1769235845.844
2061770.0,1769235845.885
2062439.0,1769235845.924
2063397.0,1769235845.965
2064607.0,1769235846.006
2064863.0,1769235846.044
2065794.0,1769235846.083
2066992.0,1769235846.124
2068470.0,1769235846.164
2069781.0,1769235846.204
2071533.0,1769235846.246
2073379.0,1769235846.284
2074681.0,1769235846.317
2073617.0,1769235846.358
2071374.0,1769235846.397
2069703.0,1769235846.438
2068072.0,1769235846.478
2067100.0,1769235846.557
2067127.0,1769235846.517
2067637.0,1769235846.598
2068440.0,1769235846.638
2069061.0,1769235846.677
2069929.0,1769235846.718
2071272.0,1769235846.757
2072218.0,1769235846.796
2073725.0,1769235846.838
2075446.0,1769235846.877
2076637.0,1769235846.917
2078314.0,1769235846.959
2075599.0,1769235847.079
2078932.0,1769235846.998
2077512.0,1769235847.039
2074275.0,1769235847.118
2072989.0,1769235847.157
2072640.0,1769235847.198
2073192.0,1769235847.238
2074061.0,1769235847.277
2074327.0,1769235847.319
2076155.0,1769235847.398
2075382.0,1769235847.358
2077251.0,1769235847.439
2078557.0,1769235847.475
2079753.0,1769235847.516
2081531.0,1769235847.557
2083286.0,1769235847.596
2084494.0,1769235847.638
2084487.0,1769235847.678
2082428.0,1769235847.717
2081383.0,1769235847.758
2080883.0,1769235847.799
2080706.0,1769235847.839
2080784.0,1769235847.879
2081734.0,1769235847.92
2082155.0,1769235847.957
2082022.0,1769235847.997
2082387.0,1769235848.039
2083180.0,1769235848.078
2083987.0,1769235848.118
2084900.0,1769235848.159
2086640.0,1769235848.198
2087490.0,1769235848.24
2088451.0,1769235848.28
2085157.0,1769235848.358
2087384.0,1769235848.317
2083370.0,1769235848.399
2081968.0,1769235848.439
2081486.0,1769235848.478
2081577.0,1769235848.519
2082279.0,1769235848.559
2082977.0,1769235848.599
2083082.0,1769235848.641
2083980.0,1769235848.677
2084808.0,1769235848.718
2085876.0,1769235848.759
2088617.0,1769235848.839
2090112.0,1769235848.88
2086992.0,1769235848.798
2091741.0,1769235848.919
2090390.0,1769235848.96
2088784.0,1769235848.999
2087858.0,1769235849.038
2086817.0,1769235849.119
2087010.0,1769235849.078
2087220.0,1769235849.159
2088602.0,1769235849.199
2089720.0,1769235849.241
2091899.0,1769235849.32
2090900.0,1769235849.279
2093330.0,1769235849.359
2094697.0,1769235849.398
2096351.0,1769235849.439
2098001.0,1769235849.479
2100114.0,1769235849.519
2102163.0,1769235849.559
2103952.0,1769235849.6
2103628.0,1769235849.64
2102894.0,1769235849.68
2102640.0,1769235849.719
2102547.0,1769235849.758
2102927.0,1769235849.799
2103215.0,1769235849.841
2104146.0,1769235849.879
2104424.0,1769235849.919
2105102.0,1769235849.961
2105871.0,1769235849.999
2107069.0,1769235850.04
2108684.0,1769235850.08
2110762.0,1769235850.12
2112924.0,1769235850.16
2115091.0,1769235850.199
2117289.0,1769235850.239
2117930.0,1769235850.279
2116408.0,1769235850.32
2115147.0,1769235850.359
2114411.0,1769235850.4
2113774.0,1769235850.442
2113360.0,1769235850.48
2114089.0,1769235850.52
2114708.0,1769235850.56
2114731.0,1769235850.599
2115163.0,1769235850.64
2115694.0,1769235850.68
2116618.0,1769235850.719
2117454.0,1769235850.76
2118386.0,1769235850.801
2120483.0,1769235850.841
2122007.0,1769235850.879
2121310.0,1769235850.92
2119729.0,1769235850.959
2118408.0,1769235850.999
2117930.0,1769235851.041
2117643.0,1769235851.08
2118454.0,1769235851.12
2119378.0,1769235851.162
2120010.0,1769235851.201
2120356.0,1769235851.24
2121192.0,1769235851.28
2122421.0,1769235851.319
2123222.0,1769235851.36
2124841.0,1769235851.401
2126119.0,1769235851.441
2127196.0,1769235851.48
2125791.0,1769235851.522
2124256.0,1769235851.561
2122835.0,1769235851.599
2121978.0,1769235851.641
2121513.0,1769235851.679
2121901.0,1769235851.72
2122782.0,1769235851.761
2123381.0,1769235851.8
2124304.0,1769235851.841
2124906.0,1769235851.882
2126369.0,1769235851.919
2127938.0,1769235851.96
2129516.0,1769235852.001
2131027.0,1769235852.041
2131798.0,1769235852.08
2130043.0,1769235852.121
2128025.0,1769235852.161
2126836.0,1769235852.201
2125600.0,1769235852.243
2125322.0,1769235852.32
2126242.0,1769235852.4
2126361.0,1769235852.441
2127322.0,1769235852.482
2128245.0,1769235852.521
2125744.0,1769235852.361
2125023.0,1769235852.279
2129554.0,1769235852.56
2130777.0,1769235852.599
2132171.0,1769235852.638
2133512.0,1769235852.678
2133847.0,1769235852.72
2132099.0,1769235852.759
2130462.0,1769235852.8
2128996.0,1769235852.841
2128193.0,1769235852.88
2127866.0,1769235852.92
2128263.0,1769235852.962
2128928.0,1769235853.001
2129738.0,1769235853.042
2130215.0,1769235853.082
2131010.0,1769235853.121
2131850.0,1769235853.162
2133309.0,1769235853.201
2134450.0,1769235853.241
2135798.0,1769235853.28
2137194.0,1769235853.322
2138592.0,1769235853.361
2138261.0,1769235853.401
2136643.0,1769235853.443
2135538.0,1769235853.482
2134684.0,1769235853.522
2134518.0,1769235853.561
2134968.0,1769235853.6
2135513.0,1769235853.641
2136823.0,1769235853.682
2137195.0,1769235853.721
2138236.0,1769235853.762
2138977.0,1769235853.803
2140199.0,1769235853.843
2141958.0,1769235853.88
2143305.0,1769235853.922
2144991.0,1769235853.961
2146620.0,1769235854.001
2146264.0,1769235854.043
2144674.0,1769235854.081
2143814.0,1769235854.122
2143404.0,1769235854.163
2143459.0,1769235854.202
2143027.0,1769235854.241
2143193.0,1769235854.282
2143146.0,1769235854.321
2143066.0,1769235854.361
2143191.0,1769235854.403
2143713.0,1769235854.442
2144951.0,1769235854.482
2146764.0,1769235854.523
2148217.0,1769235854.562
2149789.0,1769235854.601
2149700.0,1769235854.643
2147840.0,1769235854.681
2146170.0,1769235854.802
2145897.0,1769235854.843
2147801.0,1769235854.921
2146201.0,1769235854.763
2148784.0,1769235855.002
2149570.0,1769235855.042
2146700.0,1769235854.884
2150231.0,1769235855.082
2148277.0,1769235854.961
2151411.0,1769235855.122
2152721.0,1769235855.16
2153895.0,1769235855.2
2155395.0,1769235855.242
2146799.0,1769235854.721
2154296.0,1769235855.281
2151867.0,1769235855.321
2149967.0,1769235855.363
2148928.0,1769235855.402
2147830.0,1769235855.443
2147396.0,1769235855.483
2147876.0,1769235855.522
2149067.0,1769235855.642
2149800.0,1769235855.682
2150736.0,1769235855.723
2151756.0,1769235855.762
2148291.0,1769235855.563
2152923.0,1769235855.803
2148519.0,1769235855.604
2154634.0,1769235855.844
2155810.0,1769235855.883
2154447.0,1769235856.002
2157016.0,1769235855.923
2153305.0,1769235856.043
2152665.0,1769235856.083
2156049.0,1769235855.963
2151698.0,1769235856.122
2151319.0,1769235856.163
2152046.0,1769235856.204
2152592.0,1769235856.244
2153069.0,1769235856.284
2153100.0,1769235856.323
2154267.0,1769235856.362
2154786.0,1769235856.402
2155833.0,1769235856.444
2156845.0,1769235856.483
2157349.0,1769235856.523
2158135.0,1769235856.564
2158814.0,1769235856.603
2157409.0,1769235856.683
2159069.0,1769235856.644
2155722.0,1769235856.722
2154736.0,1769235856.762
2154057.0,1769235856.804
2153856.0,1769235856.844
2153716.0,1769235856.883
2154078.0,1769235856.924
2153945.0,1769235856.964
2154433.0,1769235857.002
2154321.0,1769235857.044
2155251.0,1769235857.082
2156173.0,1769235857.123
2158124.0,1769235857.203
2157277.0,1769235857.164
2159162.0,1769235857.244
2159087.0,1769235857.285
2157173.0,1769235857.324
2155692.0,1769235857.362
2154748.0,1769235857.404
2154168.0,1769235857.443
2153742.0,1769235857.483
2154419.0,1769235857.524
2154897.0,1769235857.564
2154705.0,1769235857.604
2155050.0,1769235857.646
2155698.0,1769235857.683
2156921.0,1769235857.764
2156219.0,1769235857.723
2158180.0,1769235857.803
2159778.0,1769235857.884
2159674.0,1769235857.844
2158576.0,1769235857.923
2157012.0,1769235857.964
2156051.0,1769235858.005
2155887.0,1769235858.045
2155699.0,1769235858.124
2155578.0,1769235858.083
2156219.0,1769235858.163
