bvp,time
0.28,1600927960.0
-5.91,1600927960.015625
-13.77,1600927960.03125
-21.87,1600927960.046875
-28.96,1600927960.0625
-34.54,1600927960.078125
-38.89,1600927960.09375
-42.86,1600927960.109375
-47.4,1600927960.125
-53.09,1600927960.140625
-59.91,1600927960.15625
-67.13,1600927960.171875
-73.45,1600927960.1875
-77.26,1600927960.203125
-76.92,1600927960.21875
-71.28,1600927960.234375
-60.07,1600927960.25
-44.17,1600927960.265625
-25.48,1600927960.28125
-6.42,1600927960.296875
10.77,1600927960.3125
24.65,1600927960.328125
34.89,1600927960.34375
41.99,1600927960.359375
46.89,1600927960.375
50.32,1600927960.390625
52.51,1600927960.40625
53.29,1600927960.421875
52.32,1600927960.4375
49.59,1600927960.453125
45.51,1600927960.46875
40.85,1600927960.484375
36.42,1600927960.5
32.71,1600927960.515625
29.64,1600927960.53125
26.68,1600927960.546875
23.19,1600927960.5625
18.79,1600927960.578125
13.64,1600927960.59375
8.42,1600927960.609375
4.0,1600927960.625
1.01,1600927960.640625
-0.57,1600927960.65625
-1.42,1600927960.671875
-2.61,1600927960.6875
-5.08,1600927960.703125
-9.18,1600927960.71875
-14.54,1600927960.734375
-20.2,1600927960.75
-25.16,1600927960.765625
-28.8,1600927960.78125
-31.09,1600927960.796875
-32.62,1600927960.8125
-34.16,1600927960.828125
-36.26,1600927960.84375
-39.04,1600927960.859375
-42.1,1600927960.875
-44.79,1600927960.890625
-46.5,1600927960.90625
-46.85,1600927960.921875
-45.81,1600927960.9375
-43.56,1600927960.953125
-40.33,1600927960.96875
-36.22,1600927960.984375
-31.16,1600927961.0
-24.97,1600927961.015625
-17.52,1600927961.03125
-8.84,1600927961.046875
0.94,1600927961.0625
11.61,1600927961.078125
22.99,1600927961.09375
34.8,1600927961.109375
46.54,1600927961.125
57.38,1600927961.140625
66.14,1600927961.15625
71.63,1600927961.171875
73.03,1600927961.1875
70.34,1600927961.203125
64.35,1600927961.21875
56.3,1600927961.234375
47.19,1600927961.25
37.08,1600927961.265625
25.02,1600927961.28125
9.48,1600927961.296875
-10.69,1600927961.3125
-35.3,1600927961.328125
-62.45,1600927961.34375
-88.81,1600927961.359375
-110.84,1600927961.375
-125.98,1600927961.390625
-133.64,1600927961.40625
-135.14,1600927961.421875
-132.9,1600927961.4375
-129.16,1600927961.453125
-125.04,1600927961.46875
-120.38,1600927961.484375
-114.32,1600927961.5
-106.19,1600927961.515625
-96.16,1600927961.53125
-85.22,1600927961.546875
-74.59,1600927961.5625
-65.0,1600927961.578125
-56.37,1600927961.59375
-47.96,1600927961.609375
-39.12,1600927961.625
-29.8,1600927961.640625
-20.74,1600927961.65625
-13.18,1600927961.671875
-8.22,1600927961.6875
-6.33,1600927961.703125
-7.16,1600927961.71875
-9.87,1600927961.734375
-13.5,1600927961.75
-17.42,1600927961.765625
-21.53,1600927961.78125
-26.17,1600927961.796875
-31.86,1600927961.8125
-39.0,1600927961.828125
-47.72,1600927961.84375
-57.78,1600927961.859375
-68.75,1600927961.875
-80.1,1600927961.890625
-91.41,1600927961.90625
-102.55,1600927961.921875
-113.67,1600927961.9375
-125.26,1600927961.953125
-137.93,1600927961.96875
-152.27,1600927961.984375
-168.5,1600927962.0
-186.27,1600927962.015625
-204.47,1600927962.03125
-221.41,1600927962.046875
-235.09,1600927962.0625
-243.66,1600927962.078125
-245.88,1600927962.09375
-241.36,1600927962.109375
-230.71,1600927962.125
-215.28,1600927962.140625
-196.79,1600927962.15625
-176.81,1600927962.171875
-156.21,1600927962.1875
-134.89,1600927962.203125
-111.81,1600927962.21875
-85.39,1600927962.234375
-54.18,1600927962.25
-17.36,1600927962.265625
24.97,1600927962.28125
71.72,1600927962.296875
121.05,1600927962.3125
170.63,1600927962.328125
217.92,1600927962.34375
260.49,1600927962.359375
296.31,1600927962.375
324.15,1600927962.390625
343.72,1600927962.40625
355.51,1600927962.421875
360.46,1600927962.4375
359.39,1600927962.453125
352.79,1600927962.46875
340.88,1600927962.484375
323.97,1600927962.5
302.86,1600927962.515625
278.86,1600927962.53125
253.66,1600927962.546875
228.83,1600927962.5625
205.56,1600927962.578125
184.6,1600927962.59375
166.33,1600927962.609375
150.84,1600927962.625
137.98,1600927962.640625
127.3,1600927962.65625
118.02,1600927962.671875
109.22,1600927962.6875
100.0,1600927962.703125
89.87,1600927962.71875
78.9,1600927962.734375
67.66,1600927962.75
57.01,1600927962.765625
47.71,1600927962.78125
40.18,1600927962.796875
34.27,1600927962.8125
29.47,1600927962.828125
25.09,1600927962.84375
20.72,1600927962.859375
16.28,1600927962.875
12.06,1600927962.890625
8.47,1600927962.90625
5.68,1600927962.921875
3.47,1600927962.9375
1.24,1600927962.953125
-1.76,1600927962.96875
-6.13,1600927962.984375
-12.13,1600927963.0
-19.58,1600927963.015625
-27.94,1600927963.03125
-36.49,1600927963.046875
-44.54,1600927963.0625
-51.6,1600927963.078125
-57.54,1600927963.09375
-62.61,1600927963.109375
-67.46,1600927963.125
-72.92,1600927963.140625
-79.86,1600927963.15625
-88.87,1600927963.171875
-100.0,1600927963.1875
-112.56,1600927963.203125
-124.98,1600927963.21875
-135.14,1600927963.234375
-140.8,1600927963.25
-140.32,1600927963.265625
-133.21,1600927963.28125
-120.38,1600927963.296875
-103.81,1600927963.3125
-85.91,1600927963.328125
-68.82,1600927963.34375
-53.85,1600927963.359375
-41.49,1600927963.375
-31.59,1600927963.390625
-23.8,1600927963.40625
-17.84,1600927963.421875
-13.54,1600927963.4375
-10.84,1600927963.453125
-9.64,1600927963.46875
-9.8,1600927963.484375
-11.14,1600927963.5
-13.46,1600927963.515625
-16.6,1600927963.53125
-20.36,1600927963.546875
-24.51,1600927963.5625
-28.78,1600927963.578125
-32.89,1600927963.59375
-36.64,1600927963.609375
-39.97,1600927963.625
-43.07,1600927963.640625
-46.33,1600927963.65625
-50.26,1600927963.671875
-55.35,1600927963.6875
-61.95,1600927963.703125
-70.08,1600927963.71875
-79.54,1600927963.734375
-89.88,1600927963.75
-100.58,1600927963.765625
-111.17,1600927963.78125
-121.05,1600927963.796875
-129.62,1600927963.8125
-136.16,1600927963.828125
-140.0,1600927963.84375
-140.69,1600927963.859375
-138.2,1600927963.875
-132.99,1600927963.890625
-125.81,1600927963.90625
-117.44,1600927963.921875
-108.4,1600927963.9375
-98.78,1600927963.953125
-88.43,1600927963.96875
-77.2,1600927963.984375
-65.25,1600927964.0
-53.15,1600927964.015625
-41.83,1600927964.03125
-32.33,1600927964.046875
-25.61,1600927964.0625
-22.41,1600927964.078125
-23.14,1600927964.09375
-27.75,1600927964.109375
-35.46,1600927964.125
-44.54,1600927964.140625
-52.43,1600927964.15625
-56.18,1600927964.171875
-53.22,1600927964.1875
-42.21,1600927964.203125
-23.56,1600927964.21875
0.69,1600927964.234375
27.52,1600927964.25
53.92,1600927964.265625
77.69,1600927964.28125
97.86,1600927964.296875
114.51,1600927964.3125
128.26,1600927964.328125
139.77,1600927964.34375
149.38,1600927964.359375
157.13,1600927964.375
162.92,1600927964.390625
166.8,1600927964.40625
169.13,1600927964.421875
170.59,1600927964.4375
172.0,1600927964.453125
174.06,1600927964.46875
177.2,1600927964.484375
181.46,1600927964.5
186.67,1600927964.515625
192.52,1600927964.53125
198.69,1600927964.546875
204.87,1600927964.5625
210.68,1600927964.578125
215.58,1600927964.59375
218.93,1600927964.609375
220.02,1600927964.625
218.31,1600927964.640625
213.56,1600927964.65625
205.94,1600927964.671875
196.0,1600927964.6875
184.45,1600927964.703125
172.07,1600927964.71875
159.46,1600927964.734375
146.97,1600927964.75
134.72,1600927964.765625
122.69,1600927964.78125
110.77,1600927964.796875
98.88,1600927964.8125
86.94,1600927964.828125
74.95,1600927964.84375
63.0,1600927964.859375
51.33,1600927964.875
40.4,1600927964.890625
30.68,1600927964.90625
22.55,1600927964.921875
15.97,1600927964.9375
10.41,1600927964.953125
4.91,1600927964.96875
-1.62,1600927964.984375
-10.02,1600927965.0
-20.53,1600927965.015625
-32.49,1600927965.03125
-44.49,1600927965.046875
-54.61,1600927965.0625
-60.97,1600927965.078125
-62.18,1600927965.09375
-57.72,1600927965.109375
-48.08,1600927965.125
-34.53,1600927965.140625
-18.86,1600927965.15625
-2.94,1600927965.171875
11.58,1600927965.1875
23.51,1600927965.203125
32.15,1600927965.21875
37.31,1600927965.234375
39.24,1600927965.25
38.54,1600927965.265625
35.99,1600927965.28125
32.35,1600927965.296875
28.31,1600927965.3125
24.38,1600927965.328125
20.98,1600927965.34375
18.46,1600927965.359375
17.01,1600927965.375
16.59,1600927965.390625
16.76,1600927965.40625
16.69,1600927965.421875
15.35,1600927965.4375
11.93,1600927965.453125
6.09,1600927965.46875
-1.81,1600927965.484375
-10.88,1600927965.5
-20.08,1600927965.515625
-28.6,1600927965.53125
-36.03,1600927965.546875
-42.37,1600927965.5625
-47.75,1600927965.578125
-52.2,1600927965.59375
-55.59,1600927965.609375
-57.73,1600927965.625
-58.63,1600927965.640625
-58.64,1600927965.65625
-58.41,1600927965.671875
-58.6,1600927965.6875
-59.6,1600927965.703125
-61.33,1600927965.71875
-63.29,1600927965.734375
-64.81,1600927965.75
-65.41,1600927965.765625
-65.02,1600927965.78125
-63.98,1600927965.796875
-62.96,1600927965.8125
-62.72,1600927965.828125
-63.98,1600927965.84375
-67.18,1600927965.859375
-72.32,1600927965.875
-78.82,1600927965.890625
-85.44,1600927965.90625
-90.36,1600927965.921875
-91.64,1600927965.9375
-87.72,1600927965.953125
-78.05,1600927965.96875
-63.32,1600927965.984375
-45.31,1600927966.0
-26.38,1600927966.015625
-8.75,1600927966.03125
5.99,1600927966.046875
17.17,1600927966.0625
24.85,1600927966.078125
29.54,1600927966.09375
31.85,1600927966.109375
32.35,1600927966.125
31.46,1600927966.140625
29.54,1600927966.15625
26.98,1600927966.171875
24.2,1600927966.1875
21.64,1600927966.203125
19.69,1600927966.21875
18.57,1600927966.234375
18.31,1600927966.25
18.74,1600927966.265625
19.56,1600927966.28125
20.46,1600927966.296875
21.2,1600927966.3125
21.61,1600927966.328125
21.64,1600927966.34375
21.22,1600927966.359375
20.26,1600927966.375
18.61,1600927966.390625
16.16,1600927966.40625
12.89,1600927966.421875
8.94,1600927966.4375
4.55,1600927966.453125
0.05,1600927966.46875
-4.28,1600927966.484375
-8.29,1600927966.5
-12.01,1600927966.515625
-15.62,1600927966.53125
-19.34,1600927966.546875
-23.3,1600927966.5625
-27.48,1600927966.578125
-31.78,1600927966.59375
-36.13,1600927966.609375
-40.68,1600927966.625
-45.71,1600927966.640625
-51.4,1600927966.65625
-57.57,1600927966.671875
-63.42,1600927966.6875
-67.61,1600927966.703125
-68.67,1600927966.71875
-65.54,1600927966.734375
-58.02,1600927966.75
-46.85,1600927966.765625
-33.48,1600927966.78125
-19.55,1600927966.796875
-6.41,1600927966.8125
5.06,1600927966.828125
14.53,1600927966.84375
21.96,1600927966.859375
27.51,1600927966.875
31.39,1600927966.890625
33.91,1600927966.90625
35.42,1600927966.921875
36.31,1600927966.9375
36.87,1600927966.953125
37.21,1600927966.96875
37.26,1600927966.984375
36.85,1600927967.0
35.78,1600927967.015625
34.02,1600927967.03125
31.62,1600927967.046875
28.7,1600927967.0625
25.39,1600927967.078125
21.68,1600927967.09375
17.5,1600927967.109375
12.76,1600927967.125
7.4,1600927967.140625
1.43,1600927967.15625
-5.06,1600927967.171875
-11.96,1600927967.1875
-19.18,1600927967.203125
-26.64,1600927967.21875
-34.23,1600927967.234375
-41.69,1600927967.25
-48.73,1600927967.265625
-55.03,1600927967.28125
-60.44,1600927967.296875
-65.01,1600927967.3125
-68.95,1600927967.328125
-72.52,1600927967.34375
-75.91,1600927967.359375
-79.22,1600927967.375
-82.5,1600927967.390625
-85.77,1600927967.40625
-88.93,1600927967.421875
-91.61,1600927967.4375
-93.0,1600927967.453125
-91.94,1600927967.46875
-87.27,1600927967.484375
-78.35,1600927967.5
-65.43,1600927967.515625
-49.7,1600927967.53125
-32.96,1600927967.546875
-16.99,1600927967.5625
-3.09,1600927967.578125
8.22,1600927967.59375
17.07,1600927967.609375
23.9,1600927967.625
29.18,1600927967.640625
33.13,1600927967.65625
35.8,1600927967.671875
37.15,1600927967.6875
37.2,1600927967.703125
36.19,1600927967.71875
34.57,1600927967.734375
32.93,1600927967.75
31.84,1600927967.765625
31.66,1600927967.78125
32.41,1600927967.796875
33.76,1600927967.8125
35.18,1600927967.828125
36.19,1600927967.84375
36.59,1600927967.859375
36.6,1600927967.875
36.6,1600927967.890625
36.97,1600927967.90625
37.78,1600927967.921875
38.85,1600927967.9375
39.86,1600927967.953125
40.55,1600927967.96875
40.76,1600927967.984375
40.38,1600927968.0
39.23,1600927968.015625
36.94,1600927968.03125
33.11,1600927968.046875
27.56,1600927968.0625
20.39,1600927968.078125
12.13,1600927968.09375
3.42,1600927968.109375
-5.2,1600927968.125
-13.59,1600927968.140625
-21.93,1600927968.15625
-30.49,1600927968.171875
-39.2,1600927968.1875
-47.37,1600927968.203125
-53.79,1600927968.21875
-57.09,1600927968.234375
-56.28,1600927968.25
-51.14,1600927968.265625
-42.44,1600927968.28125
-31.64,1600927968.296875
-20.34,1600927968.3125
-9.83,1600927968.328125
-0.75,1600927968.34375
6.85,1600927968.359375
13.26,1600927968.375
18.76,1600927968.390625
23.51,1600927968.40625
27.52,1600927968.421875
30.73,1600927968.4375
33.13,1600927968.453125
34.82,1600927968.46875
36.04,1600927968.484375
37.04,1600927968.5
38.07,1600927968.515625
39.21,1600927968.53125
40.43,1600927968.546875
41.6,1600927968.5625
42.55,1600927968.578125
43.18,1600927968.59375
43.45,1600927968.609375
43.35,1600927968.625
42.86,1600927968.640625
41.83,1600927968.65625
40.06,1600927968.671875
37.38,1600927968.6875
33.78,1600927968.703125
29.42,1600927968.71875
24.65,1600927968.734375
19.79,1600927968.75
15.04,1600927968.765625
10.34,1600927968.78125
5.53,1600927968.796875
0.44,1600927968.8125
-4.9,1600927968.828125
-10.25,1600927968.84375
-15.19,1600927968.859375
-19.35,1600927968.875
-22.58,1600927968.890625
-25.15,1600927968.90625
-27.67,1600927968.921875
-30.98,1600927968.9375
-35.91,1600927968.953125
-42.97,1600927968.96875
-52.08,1600927968.984375
-62.45,1600927969.0
-72.62,1600927969.015625
-80.78,1600927969.03125
-85.17,1600927969.046875
-84.64,1600927969.0625
-79.04,1600927969.078125
-69.25,1600927969.09375
-56.97,1600927969.109375
-44.21,1600927969.125
-32.61,1600927969.140625
-23.17,1600927969.15625
-16.03,1600927969.171875
-10.75,1600927969.1875
-6.61,1600927969.203125
-3.04,1600927969.21875
0.25,1600927969.234375
3.28,1600927969.25
5.96,1600927969.265625
8.26,1600927969.28125
10.23,1600927969.296875
11.93,1600927969.3125
13.34,1600927969.328125
14.33,1600927969.34375
14.73,1600927969.359375
14.54,1600927969.375
13.96,1600927969.390625
13.39,1600927969.40625
13.21,1600927969.421875
13.52,1600927969.4375
14.11,1600927969.453125
14.42,1600927969.46875
13.9,1600927969.484375
12.26,1600927969.5
9.61,1600927969.515625
6.43,1600927969.53125
3.28,1600927969.546875
0.64,1600927969.5625
-1.35,1600927969.578125
-2.84,1600927969.59375
-4.13,1600927969.609375
-5.58,1600927969.625
-7.37,1600927969.640625
-9.63,1600927969.65625
-12.37,1600927969.671875
-15.65,1600927969.6875
-19.46,1600927969.703125
-23.69,1600927969.71875
-28.13,1600927969.734375
-32.45,1600927969.75
-36.42,1600927969.765625
-40.01,1600927969.78125
-43.57,1600927969.796875
-47.62,1600927969.8125
-52.58,1600927969.828125
-58.38,1600927969.84375
-64.19,1600927969.859375
-68.62,1600927969.875
-70.08,1600927969.890625
-67.42,1600927969.90625
-60.34,1600927969.921875
-49.52,1600927969.9375
-36.32,1600927969.953125
-22.26,1600927969.96875
-8.55,1600927969.984375
4.14,1600927970.0
15.68,1600927970.015625
26.15,1600927970.03125
35.61,1600927970.046875
43.9,1600927970.0625
50.7,1600927970.078125
55.68,1600927970.09375
58.71,1600927970.109375
59.86,1600927970.125
59.32,1600927970.140625
57.25,1600927970.15625
53.72,1600927970.171875
48.82,1600927970.1875
42.79,1600927970.203125
36.22,1600927970.21875
29.85,1600927970.234375
24.38,1600927970.25
20.05,1600927970.265625
16.63,1600927970.28125
13.52,1600927970.296875
10.24,1600927970.3125
6.66,1600927970.328125
3.14,1600927970.34375
0.2,1600927970.359375
-1.91,1600927970.375
-3.47,1600927970.390625
-5.22,1600927970.40625
-7.9,1600927970.421875
-11.67,1600927970.4375
-15.87,1600927970.453125
-19.22,1600927970.46875
-20.41,1600927970.484375
-18.83,1600927970.5
-14.95,1600927970.515625
-10.19,1600927970.53125
-6.3,1600927970.546875
-4.59,1600927970.5625
-5.43,1600927970.578125
-8.25,1600927970.59375
-11.99,1600927970.609375
-15.79,1600927970.625
-19.35,1600927970.640625
-23.06,1600927970.65625
-27.64,1600927970.671875
-33.61,1600927970.6875
-41.05,1600927970.703125
-49.56,1600927970.71875
-58.35,1600927970.734375
-66.42,1600927970.75
-72.74,1600927970.765625
-76.32,1600927970.78125
-76.3,1600927970.796875
-72.19,1600927970.8125
-64.04,1600927970.828125
-52.59,1600927970.84375
-39.09,1600927970.859375
-25.03,1600927970.875
-11.75,1600927970.890625
-0.18,1600927970.90625
9.31,1600927970.921875
16.79,1600927970.9375
22.57,1600927970.953125
27.0,1600927970.96875
30.35,1600927970.984375
32.79,1600927971.0
34.4,1600927971.015625
35.29,1600927971.03125
35.58,1600927971.046875
35.42,1600927971.0625
34.96,1600927971.078125
34.31,1600927971.09375
33.6,1600927971.109375
32.95,1600927971.125
32.51,1600927971.140625
32.46,1600927971.15625
32.86,1600927971.171875
33.66,1600927971.1875
34.61,1600927971.203125
35.36,1600927971.21875
35.51,1600927971.234375
34.76,1600927971.25
33.01,1600927971.265625
30.32,1600927971.28125
26.87,1600927971.296875
22.97,1600927971.3125
18.94,1600927971.328125
15.11,1600927971.34375
11.72,1600927971.359375
8.84,1600927971.375
6.31,1600927971.390625
3.8,1600927971.40625
0.93,1600927971.421875
-2.56,1600927971.4375
-6.68,1600927971.453125
-11.2,1600927971.46875
-15.75,1600927971.484375
-19.94,1600927971.5
-23.55,1600927971.515625
-26.56,1600927971.53125
-29.15,1600927971.546875
-31.61,1600927971.5625
-34.34,1600927971.578125
-37.7,1600927971.59375
-42.06,1600927971.609375
-47.63,1600927971.625
-54.38,1600927971.640625
-61.84,1600927971.65625
-69.02,1600927971.671875
-74.52,1600927971.6875
-76.9,1600927971.703125
-75.06,1600927971.71875
-68.7,1600927971.734375
-58.43,1600927971.75
-45.56,1600927971.765625
-31.66,1600927971.78125
-18.08,1600927971.796875
-5.63,1600927971.8125
5.41,1600927971.828125
15.15,1600927971.84375
23.83,1600927971.859375
31.59,1600927971.875
38.46,1600927971.890625
44.38,1600927971.90625
49.24,1600927971.921875
52.96,1600927971.9375
55.5,1600927971.953125
56.94,1600927971.96875
57.44,1600927971.984375
57.23,1600927972.0
56.65,1600927972.015625
55.96,1600927972.03125
55.38,1600927972.046875
54.97,1600927972.0625
54.72,1600927972.078125
54.5,1600927972.09375
54.14,1600927972.109375
53.44,1600927972.125
52.21,1600927972.140625
50.34,1600927972.15625
47.85,1600927972.171875
44.89,1600927972.1875
41.71,1600927972.203125
38.57,1600927972.21875
35.54,1600927972.234375
32.53,1600927972.25
29.29,1600927972.265625
25.57,1600927972.28125
21.31,1600927972.296875
16.58,1600927972.3125
11.62,1600927972.328125
6.62,1600927972.34375
1.71,1600927972.359375
-3.13,1600927972.375
-7.91,1600927972.390625
-12.61,1600927972.40625
-17.14,1600927972.421875
-21.38,1600927972.4375
-25.32,1600927972.453125
-29.08,1600927972.46875
-32.92,1600927972.484375
-37.21,1600927972.5
-42.34,1600927972.515625
-48.68,1600927972.53125
-56.49,1600927972.546875
-65.87,1600927972.5625
-76.51,1600927972.578125
-87.61,1600927972.59375
-97.79,1600927972.609375
-105.27,1600927972.625
-108.29,1600927972.640625
-105.62,1600927972.65625
-97.04,1600927972.671875
-83.45,1600927972.6875
-66.69,1600927972.703125
-48.89,1600927972.71875
-31.88,1600927972.734375
-16.73,1600927972.75
-3.74,1600927972.765625
7.32,1600927972.78125
16.84,1600927972.796875
25.01,1600927972.8125
31.78,1600927972.828125
36.97,1600927972.84375
40.42,1600927972.859375
42.14,1600927972.875
42.26,1600927972.890625
41.05,1600927972.90625
38.77,1600927972.921875
35.76,1600927972.9375
32.42,1600927972.953125
29.18,1600927972.96875
26.56,1600927972.984375
24.92,1600927973.0
24.41,1600927973.015625
24.92,1600927973.03125
26.13,1600927973.046875
27.56,1600927973.0625
28.79,1600927973.078125
29.48,1600927973.09375
29.45,1600927973.109375
28.64,1600927973.125
27.04,1600927973.140625
24.72,1600927973.15625
21.88,1600927973.171875
18.78,1600927973.1875
15.77,1600927973.203125
13.16,1600927973.21875
11.06,1600927973.234375
9.28,1600927973.25
7.4,1600927973.265625
4.95,1600927973.28125
1.66,1600927973.296875
-2.39,1600927973.3125
-6.78,1600927973.328125
-10.89,1600927973.34375
-14.3,1600927973.359375
-16.89,1600927973.375
-18.94,1600927973.390625
-20.96,1600927973.40625
-23.47,1600927973.421875
-26.94,1600927973.4375
-31.73,1600927973.453125
-38.13,1600927973.46875
-46.22,1600927973.484375
-55.64,1600927973.5
-65.32,1600927973.515625
-73.54,1600927973.53125
-78.3,1600927973.546875
-77.95,1600927973.5625
-71.87,1600927973.578125
-60.7,1600927973.59375
-46.2,1600927973.609375
-30.5,1600927973.625
-15.52,1600927973.640625
-2.35,1600927973.65625
8.67,1600927973.671875
17.78,1600927973.6875
25.36,1600927973.703125
31.71,1600927973.71875
36.91,1600927973.734375
40.94,1600927973.75
43.79,1600927973.765625
45.53,1600927973.78125
46.4,1600927973.796875
46.69,1600927973.8125
46.74,1600927973.828125
46.82,1600927973.84375
47.15,1600927973.859375
47.89,1600927973.875
49.11,1600927973.890625
50.81,1600927973.90625
52.97,1600927973.921875
55.42,1600927973.9375
57.85,1600927973.953125
59.78,1600927973.96875
60.65,1600927973.984375
60.01,1600927974.0
57.61,1600927974.015625
53.58,1600927974.03125
48.25,1600927974.046875
42.04,1600927974.0625
35.24,1600927974.078125
27.97,1600927974.09375
20.28,1600927974.109375
12.33,1600927974.125
4.43,1600927974.140625
-2.97,1600927974.15625
-9.51,1600927974.171875
-15.16,1600927974.1875
-20.16,1600927974.203125
-24.96,1600927974.21875
-29.91,1600927974.234375
-35.1,1600927974.25
-40.36,1600927974.265625
-45.37,1600927974.28125
-49.9,1600927974.296875
-53.92,1600927974.3125
-57.67,1600927974.328125
-61.52,1600927974.34375
-65.95,1600927974.359375
-71.4,1600927974.375
-78.14,1600927974.390625
-86.1,1600927974.40625
-94.61,1600927974.421875
-102.39,1600927974.4375
-107.71,1600927974.453125
-108.86,1600927974.46875
-104.67,1600927974.484375
-94.99,1600927974.5
-80.71,1600927974.515625
-63.45,1600927974.53125
-45.1,1600927974.546875
-27.27,1600927974.5625
-11.09,1600927974.578125
2.92,1600927974.59375
14.63,1600927974.609375
24.23,1600927974.625
32.06,1600927974.640625
38.54,1600927974.65625
44.08,1600927974.671875
48.96,1600927974.6875
53.35,1600927974.703125
57.21,1600927974.71875
60.46,1600927974.734375
63.06,1600927974.75
65.09,1600927974.765625
66.73,1600927974.78125
68.15,1600927974.796875
69.43,1600927974.8125
70.5,1600927974.828125
71.16,1600927974.84375
71.15,1600927974.859375
70.26,1600927974.875
68.44,1600927974.890625
65.76,1600927974.90625
62.4,1600927974.921875
58.5,1600927974.9375
54.11,1600927974.953125
49.09,1600927974.96875
43.2,1600927974.984375
36.23,1600927975.0
28.15,1600927975.015625
19.21,1600927975.03125
9.96,1600927975.046875
1.11,1600927975.0625
-6.66,1600927975.078125
-12.83,1600927975.09375
-17.19,1600927975.109375
-19.9,1600927975.125
-21.39,1600927975.140625
-22.34,1600927975.15625
-23.39,1600927975.171875
-25.02,1600927975.1875
-27.36,1600927975.203125
-30.2,1600927975.21875
-33.17,1600927975.234375
-35.9,1600927975.25
-38.27,1600927975.265625
-40.52,1600927975.28125
-43.21,1600927975.296875
-46.93,1600927975.3125
-51.99,1600927975.328125
-58.1,1600927975.34375
-64.24,1600927975.359375
-68.81,1600927975.375
-70.04,1600927975.390625
-66.56,1600927975.40625
-57.83,1600927975.421875
-44.3,1600927975.4375
-27.22,1600927975.453125
-8.21,1600927975.46875
11.15,1600927975.484375
29.63,1600927975.5
46.33,1600927975.515625
60.71,1600927975.53125
72.45,1600927975.546875
81.5,1600927975.5625
88.02,1600927975.578125
92.34,1600927975.59375
94.74,1600927975.609375
95.32,1600927975.625
94.06,1600927975.640625
90.83,1600927975.65625
85.76,1600927975.671875
79.26,1600927975.6875
72.13,1600927975.703125
65.27,1600927975.71875
59.46,1600927975.734375
55.1,1600927975.75
52.32,1600927975.765625
51.04,1600927975.78125
51.09,1600927975.796875
52.28,1600927975.8125
54.2,1600927975.828125
56.07,1600927975.84375
56.83,1600927975.859375
55.26,1600927975.875
50.57,1600927975.890625
42.67,1600927975.90625
32.38,1600927975.921875
21.16,1600927975.9375
10.43,1600927975.953125
1.09,1600927975.96875
-6.87,1600927975.984375
-14.13,1600927976.0
-21.52,1600927976.015625
-29.52,1600927976.03125
-37.97,1600927976.046875
-46.26,1600927976.0625
-53.73,1600927976.078125
-60.08,1600927976.09375
-65.51,1600927976.109375
-70.55,1600927976.125
-75.71,1600927976.140625
-81.14,1600927976.15625
-86.66,1600927976.171875
-91.9,1600927976.1875
-96.66,1600927976.203125
-100.99,1600927976.21875
-105.16,1600927976.234375
-109.29,1600927976.25
-113.05,1600927976.265625
-115.49,1600927976.28125
-115.28,1600927976.296875
-111.19,1600927976.3125
-102.58,1600927976.328125
-89.7,1600927976.34375
-73.59,1600927976.359375
-55.74,1600927976.375
-37.44,1600927976.390625
-19.59,1600927976.40625
-2.53,1600927976.421875
13.76,1600927976.4375
29.34,1600927976.453125
44.17,1600927976.46875
57.98,1600927976.484375
70.45,1600927976.5
81.35,1600927976.515625
90.6,1600927976.53125
98.21,1600927976.546875
104.23,1600927976.5625
108.59,1600927976.578125
111.12,1600927976.59375
111.58,1600927976.609375
109.77,1600927976.625
105.68,1600927976.640625
99.47,1600927976.65625
91.62,1600927976.671875
82.9,1600927976.6875
74.33,1600927976.703125
66.84,1600927976.71875
60.94,1600927976.734375
56.49,1600927976.75
52.63,1600927976.765625
48.19,1600927976.78125
42.22,1600927976.796875
34.42,1600927976.8125
25.33,1600927976.828125
16.01,1600927976.84375
7.52,1600927976.859375
0.44,1600927976.875
-5.2,1600927976.890625
-9.84,1600927976.90625
-13.97,1600927976.921875
-17.89,1600927976.9375
-21.66,1600927976.953125
-25.22,1600927976.96875
-28.6,1600927976.984375
-31.97,1600927977.0
-35.59,1600927977.015625
-39.64,1600927977.03125
-44.14,1600927977.046875
-48.9,1600927977.0625
-53.68,1600927977.078125
-58.37,1600927977.09375
-63.01,1600927977.109375
-67.81,1600927977.125
-72.92,1600927977.140625
-78.18,1600927977.15625
-82.96,1600927977.171875
-86.15,1600927977.1875
-86.41,1600927977.203125
-82.63,1600927977.21875
-74.32,1600927977.234375
-61.86,1600927977.25
-46.47,1600927977.265625
-29.88,1600927977.28125
-13.75,1600927977.296875
0.7,1600927977.3125
12.92,1600927977.328125
23.0,1600927977.34375
31.25,1600927977.359375
37.98,1600927977.375
43.27,1600927977.390625
46.98,1600927977.40625
48.97,1600927977.421875
49.33,1600927977.4375
48.44,1600927977.453125
46.88,1600927977.46875
45.19,1600927977.484375
43.69,1600927977.5
42.37,1600927977.515625
41.08,1600927977.53125
39.66,1600927977.546875
38.11,1600927977.5625
36.65,1600927977.578125
35.51,1600927977.59375
34.76,1600927977.609375
34.2,1600927977.625
33.31,1600927977.640625
31.5,1600927977.65625
28.36,1600927977.671875
23.87,1600927977.6875
18.43,1600927977.703125
12.71,1600927977.71875
7.41,1600927977.734375
2.98,1600927977.75
-0.57,1600927977.765625
-3.6,1600927977.78125
-6.7,1600927977.796875
-10.38,1600927977.8125
-14.89,1600927977.828125
-20.12,1600927977.84375
-25.69,1600927977.859375
-31.1,1600927977.875
-35.96,1600927977.890625
-40.12,1600927977.90625
-43.65,1600927977.921875
-46.84,1600927977.9375
-50.09,1600927977.953125
-53.89,1600927977.96875
-58.66,1600927977.984375
-64.65,1600927978.0
-71.72,1600927978.015625
-79.2,1600927978.03125
-85.85,1600927978.046875
-90.14,1600927978.0625
-90.66,1600927978.078125
-86.6,1600927978.09375
-78.06,1600927978.109375
-65.94,1600927978.125
-51.74,1600927978.140625
-37.01,1600927978.15625
-22.95,1600927978.171875
-10.29,1600927978.1875
0.78,1600927978.203125
10.33,1600927978.21875
18.52,1600927978.234375
25.49,1600927978.25
31.29,1600927978.265625
35.93,1600927978.28125
39.45,1600927978.296875
41.93,1600927978.3125
43.45,1600927978.328125
44.08,1600927978.34375
43.95,1600927978.359375
43.25,1600927978.375
42.21,1600927978.390625
41.1,1600927978.40625
40.19,1600927978.421875
39.65,1600927978.4375
39.49,1600927978.453125
39.51,1600927978.46875
39.31,1600927978.484375
38.44,1600927978.5
36.49,1600927978.515625
33.33,1600927978.53125
29.07,1600927978.546875
24.14,1600927978.5625
19.09,1600927978.578125
14.42,1600927978.59375
10.47,1600927978.609375
7.26,1600927978.625
4.55,1600927978.640625
1.95,1600927978.65625
-0.88,1600927978.671875
-4.18,1600927978.6875
-7.95,1600927978.703125
-12.07,1600927978.71875
-16.26,1600927978.734375
-20.29,1600927978.75
-24.02,1600927978.765625
-27.44,1600927978.78125
-30.75,1600927978.796875
-34.27,1600927978.8125
-38.54,1600927978.828125
-44.01,1600927978.84375
-50.92,1600927978.859375
-58.93,1600927978.875
-66.95,1600927978.890625
-73.27,1600927978.90625
-75.98,1600927978.921875
-73.66,1600927978.9375
-65.88,1600927978.953125
-53.41,1600927978.96875
-37.95,1600927978.984375
-21.46,1600927979.0
-5.54,1600927979.015625
8.91,1600927979.03125
21.68,1600927979.046875
32.99,1600927979.0625
43.07,1600927979.078125
51.97,1600927979.09375
59.53,1600927979.109375
65.57,1600927979.125
70.0,1600927979.140625
72.93,1600927979.15625
74.64,1600927979.171875
75.46,1600927979.1875
75.68,1600927979.203125
75.46,1600927979.21875
74.88,1600927979.234375
73.99,1600927979.25
72.81,1600927979.265625
71.41,1600927979.28125
69.85,1600927979.296875
68.17,1600927979.3125
66.37,1600927979.328125
64.33,1600927979.34375
61.82,1600927979.359375
58.56,1600927979.375
54.27,1600927979.390625
48.82,1600927979.40625
42.35,1600927979.421875
35.29,1600927979.4375
28.2,1600927979.453125
21.61,1600927979.46875
15.78,1600927979.484375
10.6,1600927979.5
5.64,1600927979.515625
0.33,1600927979.53125
-5.75,1600927979.546875
-12.7,1600927979.5625
-20.21,1600927979.578125
-27.7,1600927979.59375
-34.56,1600927979.609375
-40.36,1600927979.625
-45.11,1600927979.640625
-49.22,1600927979.65625
-53.42,1600927979.671875
-58.48,1600927979.6875
-64.98,1600927979.703125
-73.03,1600927979.71875
-82.19,1600927979.734375
-91.43,1600927979.75
-99.23,1600927979.765625
-103.89,1600927979.78125
-103.98,1600927979.796875
-98.75,1600927979.8125
-88.51,1600927979.828125
-74.6,1600927979.84375
-59.06,1600927979.859375
-44.0,1600927979.875
-30.95,1600927979.890625
-20.55,1600927979.90625
-12.62,1600927979.921875
-6.53,1600927979.9375
-1.69,1600927979.953125
2.23,1600927979.96875
5.26,1600927979.984375
7.34,1600927980.0
8.53,1600927980.015625
9.03,1600927980.03125
9.17,1600927980.046875
9.19,1600927980.0625
9.25,1600927980.078125
9.41,1600927980.09375
9.69,1600927980.109375
10.13,1600927980.125
10.86,1600927980.140625
11.95,1600927980.15625
13.44,1600927980.171875
15.24,1600927980.1875
17.1,1600927980.203125
18.62,1600927980.21875
19.28,1600927980.234375
18.63,1600927980.25
16.35,1600927980.265625
12.51,1600927980.28125
7.58,1600927980.296875
2.31,1600927980.3125
-2.48,1600927980.328125
-6.23,1600927980.34375
-8.83,1600927980.359375
-10.64,1600927980.375
-12.31,1600927980.390625
-14.45,1600927980.40625
-17.39,1600927980.421875
-21.07,1600927980.4375
-25.16,1600927980.453125
-29.28,1600927980.46875
-33.26,1600927980.484375
-37.21,1600927980.5
-41.55,1600927980.515625
-46.77,1600927980.53125
-53.28,1600927980.546875
-61.21,1600927980.5625
-70.37,1600927980.578125
-80.12,1600927980.59375
-89.34,1600927980.609375
-96.56,1600927980.625
-100.2,1600927980.640625
-99.01,1600927980.65625
-92.48,1600927980.671875
-81.08,1600927980.6875
-66.23,1600927980.703125
-49.75,1600927980.71875
-33.38,1600927980.734375
-18.25,1600927980.75
-4.79,1600927980.765625
7.16,1600927980.78125
17.94,1600927980.796875
27.75,1600927980.8125
36.52,1600927980.828125
44.01,1600927980.84375
49.94,1600927980.859375
54.19,1600927980.875
56.86,1600927980.890625
58.26,1600927980.90625
58.79,1600927980.921875
58.81,1600927980.9375
58.57,1600927980.953125
58.18,1600927980.96875
57.71,1600927980.984375
57.22,1600927981.0
56.82,1600927981.015625
56.61,1600927981.03125
56.56,1600927981.046875
56.42,1600927981.0625
55.67,1600927981.078125
53.66,1600927981.09375
49.87,1600927981.109375
44.16,1600927981.125
36.92,1600927981.140625
28.99,1600927981.15625
21.38,1600927981.171875
14.88,1600927981.1875
9.73,1600927981.203125
5.6,1600927981.21875
1.71,1600927981.234375
-2.73,1600927981.25
-8.24,1600927981.265625
-14.77,1600927981.28125
-21.85,1600927981.296875
-28.77,1600927981.3125
-35.03,1600927981.328125
-40.46,1600927981.34375
-45.37,1600927981.359375
-50.37,1600927981.375
-56.21,1600927981.390625
-63.51,1600927981.40625
-72.58,1600927981.421875
-83.11,1600927981.4375
-94.09,1600927981.453125
-103.75,1600927981.46875
-109.87,1600927981.484375
-110.34,1600927981.5
-103.84,1600927981.515625
-90.4,1600927981.53125
-71.52,1600927981.546875
-49.66,1600927981.5625
-27.51,1600927981.578125
-7.16,1600927981.59375
10.3,1600927981.609375
24.79,1600927981.625
36.77,1600927981.640625
46.83,1600927981.65625
55.33,1600927981.671875
62.35,1600927981.6875
67.81,1600927981.703125
71.7,1600927981.71875
74.09,1600927981.734375
75.17,1600927981.75
75.2,1600927981.765625
74.42,1600927981.78125
73.06,1600927981.796875
71.33,1600927981.8125
69.41,1600927981.828125
67.5,1600927981.84375
65.77,1600927981.859375
64.32,1600927981.875
63.17,1600927981.890625
62.21,1600927981.90625
61.15,1600927981.921875
59.65,1600927981.9375
57.34,1600927981.953125
53.94,1600927981.96875
49.43,1600927981.984375
43.95,1600927982.0
37.9,1600927982.015625
31.75,1600927982.03125
25.91,1600927982.046875
20.59,1600927982.0625
15.72,1600927982.078125
10.93,1600927982.09375
5.78,1600927982.109375
-0.11,1600927982.125
-6.86,1600927982.140625
-14.27,1600927982.15625
-21.97,1600927982.171875
-29.47,1600927982.1875
-36.44,1600927982.203125
-42.71,1600927982.21875
-48.38,1600927982.234375
-53.79,1600927982.25
-59.54,1600927982.265625
-66.32,1600927982.28125
-74.75,1600927982.296875
-85.03,1600927982.3125
-96.6,1600927982.328125
-108.01,1600927982.34375
-117.15,1600927982.359375
-121.7,1600927982.375
-119.9,1600927982.390625
-111.04,1600927982.40625
-95.71,1600927982.421875
-75.59,1600927982.4375
-52.94,1600927982.453125
-30.04,1600927982.46875
-8.66,1600927982.484375
10.12,1600927982.5
25.93,1600927982.515625
38.92,1600927982.53125
49.55,1600927982.546875
58.27,1600927982.5625
65.45,1600927982.578125
71.26,1600927982.59375
75.7,1600927982.609375
78.76,1600927982.625
80.45,1600927982.640625
80.92,1600927982.65625
80.42,1600927982.671875
79.32,1600927982.6875
78.02,1600927982.703125
76.85,1600927982.71875
76.04,1600927982.734375
75.57,1600927982.75
75.27,1600927982.765625
74.82,1600927982.78125
73.88,1600927982.796875
72.24,1600927982.8125
69.78,1600927982.828125
66.5,1600927982.84375
62.44,1600927982.859375
57.64,1600927982.875
52.12,1600927982.890625
45.93,1600927982.90625
39.27,1600927982.921875
32.41,1600927982.9375
25.72,1600927982.953125
19.52,1600927982.96875
13.97,1600927982.984375
9.07,1600927983.0
4.63,1600927983.015625
0.34,1600927983.03125
-4.12,1600927983.046875
-9.0,1600927983.0625
-14.39,1600927983.078125
-20.17,1600927983.09375
-26.13,1600927983.109375
-32.04,1600927983.125
-37.74,1600927983.140625
-43.18,1600927983.15625
-48.53,1600927983.171875
-54.1,1600927983.1875
-60.36,1600927983.203125
-67.83,1600927983.21875
-76.85,1600927983.234375
-87.34,1600927983.25
-98.35,1600927983.265625
-108.09,1600927983.28125
-114.2,1600927983.296875
-114.4,1600927983.3125
-107.28,1600927983.328125
-92.92,1600927983.34375
-72.98,1600927983.359375
-50.15,1600927983.375
-27.39,1600927983.390625
-7.0,1600927983.40625
9.87,1600927983.421875
23.23,1600927983.4375
33.77,1600927983.453125
42.34,1600927983.46875
49.46,1600927983.484375
55.24,1600927983.5
59.51,1600927983.515625
62.15,1600927983.53125
63.27,1600927983.546875
63.23,1600927983.5625
62.49,1600927983.578125
61.41,1600927983.59375
60.15,1600927983.609375
58.71,1600927983.625
57.03,1600927983.640625
55.21,1600927983.65625
53.53,1600927983.671875
52.28,1600927983.6875
51.61,1600927983.703125
51.37,1600927983.71875
51.15,1600927983.734375
50.37,1600927983.75
48.59,1600927983.765625
45.67,1600927983.78125
41.82,1600927983.796875
37.46,1600927983.8125
33.04,1600927983.828125
28.78,1600927983.84375
24.64,1600927983.859375
20.41,1600927983.875
15.93,1600927983.890625
11.24,1600927983.90625
6.66,1600927983.921875
2.54,1600927983.9375
-0.93,1600927983.953125
-3.95,1600927983.96875
-7.01,1600927983.984375
-10.67,1600927984.0
-15.24,1600927984.015625
-20.64,1600927984.03125
-26.35,1600927984.046875
-31.77,1600927984.0625
-36.49,1600927984.078125
-40.5,1600927984.09375
-44.19,1600927984.109375
-48.23,1600927984.125
-53.28,1600927984.140625
-59.79,1600927984.15625
-67.86,1600927984.171875
-77.06,1600927984.1875
-86.28,1600927984.203125
-93.8,1600927984.21875
-97.53,1600927984.234375
-95.64,1600927984.25
-87.15,1600927984.265625
-72.38,1600927984.28125
-52.98,1600927984.296875
-31.43,1600927984.3125
-10.28,1600927984.328125
8.47,1600927984.34375
23.85,1600927984.359375
35.8,1600927984.375
44.86,1600927984.390625
51.71,1600927984.40625
56.91,1600927984.421875
60.75,1600927984.4375
63.43,1600927984.453125
65.07,1600927984.46875
65.86,1600927984.484375
66.04,1600927984.5
65.75,1600927984.515625
65.09,1600927984.53125
64.07,1600927984.546875
62.72,1600927984.5625
61.15,1600927984.578125
59.6,1600927984.59375
58.32,1600927984.609375
57.49,1600927984.625
57.13,1600927984.640625
57.07,1600927984.65625
56.98,1600927984.671875
56.43,1600927984.6875
55.09,1600927984.703125
52.8,1600927984.71875
49.62,1600927984.734375
45.79,1600927984.75
41.71,1600927984.765625
37.71,1600927984.78125
33.92,1600927984.796875
30.21,1600927984.8125
26.25,1600927984.828125
21.71,1600927984.84375
16.44,1600927984.859375
10.63,1600927984.875
4.74,1600927984.890625
-0.76,1600927984.90625
-5.55,1600927984.921875
-9.67,1600927984.9375
-13.47,1600927984.953125
-17.42,1600927984.96875
-21.88,1600927984.984375
-26.99,1600927985.0
-32.54,1600927985.015625
-38.16,1600927985.03125
-43.47,1600927985.046875
-48.21,1600927985.0625
-52.39,1600927985.078125
-56.26,1600927985.09375
-60.28,1600927985.109375
-65.0,1600927985.125
-70.92,1600927985.140625
-78.34,1600927985.15625
-87.04,1600927985.171875
-96.16,1600927985.1875
-104.09,1600927985.203125
-108.81,1600927985.21875
-108.34,1600927985.234375
-101.52,1600927985.25
-88.43,1600927985.265625
-70.47,1600927985.28125
-49.96,1600927985.296875
-29.37,1600927985.3125
-10.59,1600927985.328125
5.44,1600927985.34375
18.68,1600927985.359375
29.52,1600927985.375
38.41,1600927985.390625
45.57,1600927985.40625
51.05,1600927985.421875
54.98,1600927985.4375
57.72,1600927985.453125
59.89,1600927985.46875
62.07,1600927985.484375
64.61,1600927985.5
67.45,1600927985.515625
70.14,1600927985.53125
72.11,1600927985.546875
72.97,1600927985.5625
72.73,1600927985.578125
71.83,1600927985.59375
70.93,1600927985.609375
70.52,1600927985.625
70.71,1600927985.640625
71.07,1600927985.65625
70.87,1600927985.671875
69.39,1600927985.6875
66.29,1600927985.703125
61.79,1600927985.71875
56.52,1600927985.734375
51.28,1600927985.75
46.64,1600927985.765625
42.86,1600927985.78125
39.87,1600927985.796875
37.46,1600927985.8125
35.4,1600927985.828125
33.48,1600927985.84375
31.41,1600927985.859375
28.75,1600927985.875
25.04,1600927985.890625
19.9,1600927985.90625
13.22,1600927985.921875
5.17,1600927985.9375
-3.89,1600927985.953125
-13.57,1600927985.96875
-23.53,1600927985.984375
-33.58,1600927986.0
-43.45,1600927986.015625
-52.86,1600927986.03125
-61.42,1600927986.046875
-68.88,1600927986.0625
-75.23,1600927986.078125
-80.8,1600927986.09375
-86.21,1600927986.109375
-92.14,1600927986.125
-98.99,1600927986.140625
-106.53,1600927986.15625
-113.78,1600927986.171875
-119.13,1600927986.1875
-120.72,1600927986.203125
-117.08,1600927986.21875
-107.64,1600927986.234375
-92.97,1600927986.25
-74.66,1600927986.265625
-54.78,1600927986.28125
-35.25,1600927986.296875
-17.46,1600927986.3125
-2.02,1600927986.328125
10.97,1600927986.34375
21.72,1600927986.359375
30.35,1600927986.375
36.89,1600927986.390625
41.23,1600927986.40625
43.36,1600927986.421875
43.5,1600927986.4375
42.05,1600927986.453125
39.53,1600927986.46875
36.5,1600927986.484375
33.34,1600927986.5
30.26,1600927986.515625
27.37,1600927986.53125
24.76,1600927986.546875
22.55,1600927986.5625
20.85,1600927986.578125
19.71,1600927986.59375
19.01,1600927986.609375
18.5,1600927986.625
17.89,1600927986.640625
16.95,1600927986.65625
15.64,1600927986.671875
14.03,1600927986.6875
12.3,1600927986.703125
10.56,1600927986.71875
8.88,1600927986.734375
7.22,1600927986.75
5.5,1600927986.765625
3.59,1600927986.78125
1.34,1600927986.796875
-1.43,1600927986.8125
-4.88,1600927986.828125
-9.11,1600927986.84375
-14.15,1600927986.859375
-19.87,1600927986.875
-26.08,1600927986.890625
-32.47,1600927986.90625
-38.64,1600927986.921875
-44.2,1600927986.9375
-48.82,1600927986.953125
-52.36,1600927986.96875
-54.99,1600927986.984375
-57.14,1600927987.0
-59.44,1600927987.015625
-62.56,1600927987.03125
-66.95,1600927987.046875
-72.67,1600927987.0625
-79.17,1600927987.078125
-85.29,1600927987.09375
-89.44,1600927987.109375
-89.96,1600927987.125
-85.66,1600927987.140625
-76.21,1600927987.15625
-62.34,1600927987.171875
-45.67,1600927987.1875
-28.2,1600927987.203125
-11.73,1600927987.21875
2.55,1600927987.234375
14.19,1600927987.25
23.28,1600927987.265625
30.21,1600927987.28125
35.4,1600927987.296875
39.22,1600927987.3125
42.01,1600927987.328125
44.02,1600927987.34375
45.44,1600927987.359375
46.35,1600927987.375
46.76,1600927987.390625
46.61,1600927987.40625
45.88,1600927987.421875
44.67,1600927987.4375
43.21,1600927987.453125
41.82,1600927987.46875
40.79,1600927987.484375
40.28,1600927987.5
40.25,1600927987.515625
40.51,1600927987.53125
40.71,1600927987.546875
40.51,1600927987.5625
39.67,1600927987.578125
38.15,1600927987.59375
36.12,1600927987.609375
33.91,1600927987.625
31.83,1600927987.640625
30.08,1600927987.65625
28.69,1600927987.671875
27.53,1600927987.6875
26.34,1600927987.703125
24.86,1600927987.71875
22.79,1600927987.734375
19.93,1600927987.75
16.14,1600927987.765625
11.41,1600927987.78125
5.79,1600927987.796875
-0.49,1600927987.8125
-7.14,1600927987.828125
-13.86,1600927987.84375
-20.35,1600927987.859375
-26.49,1600927987.875
-32.29,1600927987.890625
-37.88,1600927987.90625
-43.5,1600927987.921875
-49.4,1600927987.9375
-55.78,1600927987.953125
-62.77,1600927987.96875
-70.26,1600927987.984375
-77.89,1600927988.0
-84.88,1600927988.015625
-90.05,1600927988.03125
-91.98,1600927988.046875
-89.46,1600927988.0625
-81.92,1600927988.078125
-69.79,1600927988.09375
-54.48,1600927988.109375
-37.99,1600927988.125
-22.4,1600927988.140625
-9.13,1600927988.15625
1.25,1600927988.171875
8.96,1600927988.1875
14.68,1600927988.203125
19.01,1600927988.21875
22.24,1600927988.234375
24.3,1600927988.25
25.02,1600927988.265625
24.37,1600927988.28125
22.63,1600927988.296875
20.32,1600927988.3125
18.0,1600927988.328125
16.11,1600927988.34375
14.77,1600927988.359375
13.9,1600927988.375
13.36,1600927988.390625
13.06,1600927988.40625
13.07,1600927988.421875
13.47,1600927988.4375
14.26,1600927988.453125
15.21,1600927988.46875
16.02,1600927988.484375
16.37,1600927988.5
16.15,1600927988.515625
15.54,1600927988.53125
14.94,1600927988.546875
14.83,1600927988.5625
15.51,1600927988.578125
16.89,1600927988.59375
18.42,1600927988.609375
19.24,1600927988.625
18.46,1600927988.640625
15.5,1600927988.65625
10.22,1600927988.671875
2.96,1600927988.6875
-5.58,1600927988.703125
-14.7,1600927988.71875
-23.76,1600927988.734375
-32.3,1600927988.75
-39.99,1600927988.765625
-46.56,1600927988.78125
-51.87,1600927988.796875
-55.96,1600927988.8125
-59.28,1600927988.828125
-62.55,1600927988.84375
-66.59,1600927988.859375
-71.78,1600927988.875
-77.66,1600927988.890625
-82.88,1600927988.90625
-85.47,1600927988.921875
-83.55,1600927988.9375
-76.04,1600927988.953125
-63.03,1600927988.96875
-45.75,1600927988.984375
-26.16,1600927989.0
-6.24,1600927989.015625
12.45,1600927989.03125
29.01,1600927989.046875
43.01,1600927989.0625
54.38,1600927989.078125
63.08,1600927989.09375
69.06,1600927989.109375
72.4,1600927989.125
73.23,1600927989.140625
71.88,1600927989.15625
68.86,1600927989.171875
64.7,1600927989.1875
59.93,1600927989.203125
54.86,1600927989.21875
49.67,1600927989.234375
44.41,1600927989.25
39.15,1600927989.265625
34.07,1600927989.28125
29.54,1600927989.296875
25.91,1600927989.3125
23.42,1600927989.328125
21.93,1600927989.34375
20.97,1600927989.359375
19.85,1600927989.375
17.99,1600927989.390625
15.07,1600927989.40625
11.21,1600927989.421875
6.76,1600927989.4375
2.1,1600927989.453125
-2.57,1600927989.46875
-7.34,1600927989.484375
-12.51,1600927989.5
-18.35,1600927989.515625
-24.97,1600927989.53125
-32.18,1600927989.546875
-39.64,1600927989.5625
-46.95,1600927989.578125
-53.9,1600927989.59375
-60.5,1600927989.609375
-67.07,1600927989.625
-74.05,1600927989.640625
-81.93,1600927989.65625
-90.91,1600927989.671875
-100.73,1600927989.6875
-110.43,1600927989.703125
-118.36,1600927989.71875
-122.52,1600927989.734375
-121.07,1600927989.75
-113.02,1600927989.765625
-98.61,1600927989.78125
-79.38,1600927989.796875
-57.65,1600927989.8125
-35.97,1600927989.828125
-16.37,1600927989.84375
-0.02,1600927989.859375
12.76,1600927989.875
22.34,1600927989.890625
29.32,1600927989.90625
34.38,1600927989.921875
38.01,1600927989.9375
40.56,1600927989.953125
42.33,1600927989.96875
43.57,1600927989.984375
44.59,1600927990.0
45.66,1600927990.015625
47.0,1600927990.03125
48.66,1600927990.046875
50.54,1600927990.0625
52.38,1600927990.078125
53.93,1600927990.09375
55.06,1600927990.109375
55.77,1600927990.125
56.09,1600927990.140625
56.07,1600927990.15625
55.63,1600927990.171875
54.7,1600927990.1875
53.31,1600927990.203125
51.64,1600927990.21875
49.98,1600927990.234375
48.45,1600927990.25
46.77,1600927990.265625
44.31,1600927990.28125
40.24,1600927990.296875
33.95,1600927990.3125
25.43,1600927990.328125
15.29,1600927990.34375
4.58,1600927990.359375
-5.69,1600927990.375
-14.92,1600927990.390625
-23.13,1600927990.40625
-30.86,1600927990.421875
-38.96,1600927990.4375
-48.19,1600927990.453125
-59.08,1600927990.46875
-71.59,1600927990.484375
-85.04,1600927990.5
-97.98,1600927990.515625
-108.4,1600927990.53125
-114.18,1600927990.546875
-113.63,1600927990.5625
-106.08,1600927990.578125
-92.16,1600927990.59375
-73.58,1600927990.609375
-52.75,1600927990.625
-32.0,1600927990.640625
-13.12,1600927990.65625
2.98,1600927990.671875
16.07,1600927990.6875
26.43,1600927990.703125
34.45,1600927990.71875
40.44,1600927990.734375
44.56,1600927990.75
46.94,1600927990.765625
47.79,1600927990.78125
47.47,1600927990.796875
46.53,1600927990.8125
45.55,1600927990.828125
45.04,1600927990.84375
45.29,1600927990.859375
46.29,1600927990.875
47.71,1600927990.890625
49.05,1600927990.90625
49.91,1600927990.921875
50.03,1600927990.9375
49.52,1600927990.953125
48.66,1600927990.96875
47.82,1600927990.984375
47.2,1600927991.0
46.77,1600927991.015625
46.23,1600927991.03125
45.15,1600927991.046875
43.0,1600927991.0625
39.25,1600927991.078125
33.45,1600927991.09375
25.25,1600927991.109375
14.62,1600927991.125
1.92,1600927991.140625
-12.12,1600927991.15625
-26.53,1600927991.171875
-40.43,1600927991.1875
-53.22,1600927991.203125
-64.71,1600927991.21875
-75.14,1600927991.234375
-85.01,1600927991.25
-95.04,1600927991.265625
-105.94,1600927991.28125
-118.01,1600927991.296875
-130.78,1600927991.3125
-142.71,1600927991.328125
-151.39,1600927991.34375
-154.18,1600927991.359375
-149.2,1600927991.375
-136.19,1600927991.390625
-116.61,1600927991.40625
-93.1,1600927991.421875
-68.45,1600927991.4375
-44.72,1600927991.453125
-22.86,1600927991.46875
-2.97,1600927991.484375
15.12,1600927991.5
31.32,1600927991.515625
45.27,1600927991.53125
56.47,1600927991.546875
64.68,1600927991.5625
70.07,1600927991.578125
73.06,1600927991.59375
74.2,1600927991.609375
73.95,1600927991.625
72.6,1600927991.640625
70.45,1600927991.65625
67.86,1600927991.671875
65.28,1600927991.6875
63.17,1600927991.703125
61.86,1600927991.71875
61.38,1600927991.734375
61.34,1600927991.75
61.1,1600927991.765625
59.82,1600927991.78125
56.93,1600927991.796875
52.24,1600927991.8125
46.12,1600927991.828125
39.31,1600927991.84375
32.6,1600927991.859375
26.45,1600927991.875
20.83,1600927991.890625
15.24,1600927991.90625
9.06,1600927991.921875
1.86,1600927991.9375
-6.41,1600927991.953125
-15.33,1600927991.96875
-24.29,1600927991.984375
-32.69,1600927992.0
-40.22,1600927992.015625
-46.99,1600927992.03125
-53.58,1600927992.046875
-60.98,1600927992.0625
-70.3,1600927992.078125
-82.46,1600927992.09375
-97.63,1600927992.109375
-114.75,1600927992.125
-131.49,1600927992.140625
-144.51,1600927992.15625
-150.37,1600927992.171875
-146.55,1600927992.1875
-132.43,1600927992.203125
-109.42,1600927992.21875
-80.65,1600927992.234375
-49.86,1600927992.25
-20.41,1600927992.265625
5.44,1600927992.28125
26.73,1600927992.296875
43.48,1600927992.3125
56.21,1600927992.328125
65.64,1600927992.34375
72.52,1600927992.359375
77.58,1600927992.375
81.47,1600927992.390625
84.66,1600927992.40625
87.31,1600927992.421875
89.31,1600927992.4375
90.41,1600927992.453125
90.56,1600927992.46875
89.95,1600927992.484375
89.07,1600927992.5
88.39,1600927992.515625
88.21,1600927992.53125
88.45,1600927992.546875
88.76,1600927992.5625
88.72,1600927992.578125
87.96,1600927992.59375
86.33,1600927992.609375
83.83,1600927992.625
80.48,1600927992.640625
76.3,1600927992.65625
71.23,1600927992.671875
65.26,1600927992.6875
58.42,1600927992.703125
50.92,1600927992.71875
43.07,1600927992.734375
35.22,1600927992.75
27.59,1600927992.765625
20.2,1600927992.78125
12.79,1600927992.796875
4.94,1600927992.8125
-3.87,1600927992.828125
-14.11,1600927992.84375
-26.22,1600927992.859375
-40.52,1600927992.875
-57.12,1600927992.890625
-75.61,1600927992.90625
-94.67,1600927992.921875
-111.92,1600927992.9375
-124.18,1600927992.953125
-128.38,1600927992.96875
-122.63,1600927992.984375
-107.09,1600927993.0
-84.04,1600927993.015625
-57.22,1600927993.03125
-30.51,1600927993.046875
-6.88,1600927993.0625
12.23,1600927993.078125
26.77,1600927993.09375
37.43,1600927993.109375
45.03,1600927993.125
50.12,1600927993.140625
53.02,1600927993.15625
53.95,1600927993.171875
53.25,1600927993.1875
51.4,1600927993.203125
48.96,1600927993.21875
46.46,1600927993.234375
44.32,1600927993.25
42.85,1600927993.265625
42.25,1600927993.28125
42.7,1600927993.296875
44.32,1600927993.3125
47.1,1600927993.328125
50.77,1600927993.34375
54.74,1600927993.359375
58.12,1600927993.375
59.94,1600927993.390625
59.42,1600927993.40625
56.26,1600927993.421875
50.8,1600927993.4375
43.8,1600927993.453125
36.22,1600927993.46875
28.8,1600927993.484375
21.83,1600927993.5
15.17,1600927993.515625
8.39,1600927993.53125
1.07,1600927993.546875
-6.96,1600927993.5625
-15.53,1600927993.578125
-24.19,1600927993.59375
-32.46,1600927993.609375
-40.1,1600927993.625
-47.28,1600927993.640625
-54.65,1600927993.65625
-63.2,1600927993.671875
-73.91,1600927993.6875
-87.27,1600927993.703125
-102.78,1600927993.71875
-118.62,1600927993.734375
-131.85,1600927993.75
-139.11,1600927993.765625
-137.68,1600927993.78125
-126.48,1600927993.796875
-106.41,1600927993.8125
-80.15,1600927993.828125
-51.18,1600927993.84375
-22.83,1600927993.859375
2.54,1600927993.875
23.64,1600927993.890625
40.2,1600927993.90625
52.56,1600927993.921875
61.51,1600927993.9375
68.05,1600927993.953125
73.26,1600927993.96875
77.96,1600927993.984375
82.45,1600927994.0
86.37,1600927994.015625
89.01,1600927994.03125
89.67,1600927994.046875
88.17,1600927994.0625
84.93,1600927994.078125
80.88,1600927994.09375
76.99,1600927994.109375
73.97,1600927994.125
72.14,1600927994.140625
71.44,1600927994.15625
71.6,1600927994.171875
72.26,1600927994.1875
72.94,1600927994.203125
73.03,1600927994.21875
71.84,1600927994.234375
68.8,1600927994.25
63.66,1600927994.265625
56.59,1600927994.28125
48.21,1600927994.296875
39.34,1600927994.3125
30.67,1600927994.328125
22.56,1600927994.34375
14.8,1600927994.359375
6.83,1600927994.375
-2.08,1600927994.390625
-12.48,1600927994.40625
-24.42,1600927994.421875
-37.35,1600927994.4375
-50.26,1600927994.453125
-62.05,1600927994.46875
-71.86,1600927994.484375
-79.54,1600927994.5
-85.65,1600927994.515625
-91.36,1600927994.53125
-98.15,1600927994.546875
-107.29,1600927994.5625
-119.45,1600927994.578125
-134.25,1600927994.59375
-150.1,1600927994.609375
-164.19,1600927994.625
-173.08,1600927994.640625
-173.54,1600927994.65625
-163.59,1600927994.671875
-143.31,1600927994.6875
-114.86,1600927994.703125
-81.91,1600927994.71875
-48.45,1600927994.734375
-17.66,1600927994.75
8.81,1600927994.765625
30.76,1600927994.78125
48.93,1600927994.796875
64.32,1600927994.8125
77.61,1600927994.828125
89.16,1600927994.84375
98.98,1600927994.859375
107.08,1600927994.875
113.47,1600927994.890625
118.24,1600927994.90625
121.42,1600927994.921875
123.04,1600927994.9375
123.09,1600927994.953125
121.74,1600927994.96875
119.41,1600927994.984375
116.7,1600927995.0
114.28,1600927995.015625
112.65,1600927995.03125
111.91,1600927995.046875
111.75,1600927995.0625
111.48,1600927995.078125
110.32,1600927995.09375
107.68,1600927995.109375
103.33,1600927995.125
97.37,1600927995.140625
90.13,1600927995.15625
82.02,1600927995.171875
73.4,1600927995.1875
64.56,1600927995.203125
55.74,1600927995.21875
47.24,1600927995.234375
39.24,1600927995.25
31.84,1600927995.265625
24.85,1600927995.28125
17.9,1600927995.296875
10.54,1600927995.3125
2.5,1600927995.328125
-6.16,1600927995.34375
-15.01,1600927995.359375
-23.41,1600927995.375
-30.83,1600927995.390625
-37.07,1600927995.40625
-42.45,1600927995.421875
-47.65,1600927995.4375
-53.59,1600927995.453125
-61.09,1600927995.46875
-70.71,1600927995.484375
-82.49,1600927995.5
-95.76,1600927995.515625
-109.01,1600927995.53125
-119.95,1600927995.546875
-125.87,1600927995.5625
-124.34,1600927995.578125
-114.0,1600927995.59375
-95.16,1600927995.609375
-69.89,1600927995.625
-41.4,1600927995.640625
-13.17,1600927995.65625
12.14,1600927995.671875
33.18,1600927995.6875
49.91,1600927995.703125
63.04,1600927995.71875
73.46,1600927995.734375
81.84,1600927995.75
88.48,1600927995.765625
93.42,1600927995.78125
96.7,1600927995.796875
98.43,1600927995.8125
98.78,1600927995.828125
97.98,1600927995.84375
96.34,1600927995.859375
94.12,1600927995.875
91.6,1600927995.890625
89.06,1600927995.90625
86.74,1600927995.921875
84.87,1600927995.9375
83.62,1600927995.953125
83.01,1600927995.96875
82.92,1600927995.984375
82.98,1600927996.0
82.59,1600927996.015625
81.05,1600927996.03125
77.78,1600927996.046875
72.51,1600927996.0625
65.5,1600927996.078125
57.44,1600927996.09375
49.32,1600927996.109375
42.03,1600927996.125
36.08,1600927996.140625
31.42,1600927996.15625
27.45,1600927996.171875
23.25,1600927996.1875
17.87,1600927996.203125
10.64,1600927996.21875
1.36,1600927996.234375
-9.73,1600927996.25
-22.01,1600927996.265625
-34.76,1600927996.28125
-47.29,1600927996.296875
-59.11,1600927996.3125
-70.0,1600927996.328125
-80.13,1600927996.34375
-90.01,1600927996.359375
-100.44,1600927996.375
-112.22,1600927996.390625
-125.71,1600927996.40625
-140.48,1600927996.421875
-155.01,1600927996.4375
-166.93,1600927996.453125
-173.57,1600927996.46875
-172.77,1600927996.484375
-163.65,1600927996.5
-146.93,1600927996.515625
-124.71,1600927996.53125
-99.75,1600927996.546875
-74.7,1600927996.5625
-51.43,1600927996.578125
-30.9,1600927996.59375
-13.32,1600927996.609375
1.46,1600927996.625
13.59,1600927996.640625
23.14,1600927996.65625
30.15,1600927996.671875
34.89,1600927996.6875
37.78,1600927996.703125
39.49,1600927996.71875
40.61,1600927996.734375
41.61,1600927996.75
42.71,1600927996.765625
44.01,1600927996.78125
45.59,1600927996.796875
47.56,1600927996.8125
50.06,1600927996.828125
53.09,1600927996.84375
56.46,1600927996.859375
59.73,1600927996.875
62.3,1600927996.890625
63.6,1600927996.90625
63.29,1600927996.921875
61.26,1600927996.9375
57.67,1600927996.953125
52.78,1600927996.96875
46.88,1600927996.984375
40.21,1600927997.0
33.0,1600927997.015625
25.46,1600927997.03125
17.85,1600927997.046875
10.37,1600927997.0625
3.16,1600927997.078125
-3.74,1600927997.09375
-10.41,1600927997.109375
-16.92,1600927997.125
-23.32,1600927997.140625
-29.58,1600927997.15625
-35.64,1600927997.171875
-41.42,1600927997.1875
-46.83,1600927997.203125
-51.84,1600927997.21875
-56.41,1600927997.234375
-60.61,1600927997.25
-64.65,1600927997.265625
-68.97,1600927997.28125
-74.17,1600927997.296875
-80.85,1600927997.3125
-89.25,1600927997.328125
-98.85,1600927997.34375
-108.22,1600927997.359375
-115.16,1600927997.375
-117.34,1600927997.390625
-113.04,1600927997.40625
-101.78,1600927997.421875
-84.53,1600927997.4375
-63.36,1600927997.453125
-40.8,1600927997.46875
-19.1,1600927997.484375
0.23,1600927997.5
16.54,1600927997.515625
29.76,1600927997.53125
40.19,1600927997.546875
48.15,1600927997.5625
53.96,1600927997.578125
57.92,1600927997.59375
60.36,1600927997.609375
61.6,1600927997.625
61.96,1600927997.640625
61.71,1600927997.65625
61.07,1600927997.671875
60.17,1600927997.6875
59.09,1600927997.703125
57.92,1600927997.71875
56.76,1600927997.734375
55.72,1600927997.75
54.96,1600927997.765625
54.53,1600927997.78125
54.31,1600927997.796875
54.04,1600927997.8125
53.38,1600927997.828125
52.02,1600927997.84375
49.79,1600927997.859375
46.74,1600927997.875
43.06,1600927997.890625
38.97,1600927997.90625
34.68,1600927997.921875
30.3,1600927997.9375
25.82,1600927997.953125
21.19,1600927997.96875
16.37,1600927997.984375
11.33,1600927998.0
6.12,1600927998.015625
0.73,1600927998.03125
-4.79,1600927998.046875
-10.44,1600927998.0625
-16.21,1600927998.078125
-22.03,1600927998.09375
-27.73,1600927998.109375
-33.09,1600927998.125
-37.98,1600927998.140625
-42.42,1600927998.15625
-46.69,1600927998.171875
-51.19,1600927998.1875
-56.37,1600927998.203125
-62.62,1600927998.21875
-70.16,1600927998.234375
-79.1,1600927998.25
-89.33,1600927998.265625
-100.28,1600927998.28125
-110.71,1600927998.296875
-118.73,1600927998.3125
-122.08,1600927998.328125
-118.86,1600927998.34375
-108.25,1600927998.359375
-91.0,1600927998.375
-69.33,1600927998.390625
-46.2,1600927998.40625
-24.44,1600927998.421875
-5.99,1600927998.4375
8.42,1600927998.453125
19.06,1600927998.46875
26.72,1600927998.484375
32.17,1600927998.5
35.97,1600927998.515625
38.36,1600927998.53125
39.55,1600927998.546875
39.75,1600927998.5625
39.29,1600927998.578125
38.58,1600927998.59375
37.88,1600927998.609375
37.32,1600927998.625
36.87,1600927998.640625
36.44,1600927998.65625
36.02,1600927998.671875
35.71,1600927998.6875
35.65,1600927998.703125
35.96,1600927998.71875
36.53,1600927998.734375
37.13,1600927998.75
37.44,1600927998.765625
37.2,1600927998.78125
36.29,1600927998.796875
34.73,1600927998.8125
32.57,1600927998.828125
29.87,1600927998.84375
26.66,1600927998.859375
22.97,1600927998.875
18.88,1600927998.890625
14.52,1600927998.90625
10.05,1600927998.921875
5.62,1600927998.9375
1.38,1600927998.953125
-2.58,1600927998.96875
-6.26,1600927998.984375
-9.75,1600927999.0
-13.21,1600927999.015625
-16.85,1600927999.03125
-20.74,1600927999.046875
-24.76,1600927999.0625
-28.64,1600927999.078125
-32.1,1600927999.09375
-35.04,1600927999.109375
-37.66,1600927999.125
-40.53,1600927999.140625
-44.35,1600927999.15625
-49.75,1600927999.171875
-56.89,1600927999.1875
-65.26,1600927999.203125
-73.61,1600927999.21875
-80.1,1600927999.234375
-82.79,1600927999.25
-80.12,1600927999.265625
-71.47,1600927999.28125
-57.38,1600927999.296875
-39.37,1600927999.3125
-19.5,1600927999.328125
0.24,1600927999.34375
18.36,1600927999.359375
34.05,1600927999.375
47.0,1600927999.390625
57.17,1600927999.40625
64.56,1600927999.421875
69.13,1600927999.4375
70.89,1600927999.453125
69.97,1600927999.46875
66.77,1600927999.484375
61.84,1600927999.5
55.88,1600927999.515625
49.53,1600927999.53125
43.27,1600927999.546875
37.46,1600927999.5625
32.26,1600927999.578125
27.81,1600927999.59375
24.17,1600927999.609375
21.43,1600927999.625
19.54,1600927999.640625
18.38,1600927999.65625
17.62,1600927999.671875
16.86,1600927999.6875
15.78,1600927999.703125
14.16,1600927999.71875
11.98,1600927999.734375
9.38,1600927999.75
6.51,1600927999.765625
3.51,1600927999.78125
0.44,1600927999.796875
-2.66,1600927999.8125
-5.8,1600927999.828125
-8.93,1600927999.84375
-12.02,1600927999.859375
-15.07,1600927999.875
-18.1,1600927999.890625
-21.21,1600927999.90625
-24.51,1600927999.921875
-28.12,1600927999.9375
-32.04,1600927999.953125
-36.19,1600927999.96875
-40.37,1600927999.984375
-44.29,1600928000.0
-47.76,1600928000.015625
-50.79,1600928000.03125
-53.68,1600928000.046875
-56.94,1600928000.0625
-61.23,1600928000.078125
-67.03,1600928000.09375
-74.39,1600928000.109375
-82.7,1600928000.125
-90.69,1600928000.140625
-96.53,1600928000.15625
-98.32,1600928000.171875
-94.58,1600928000.1875
-84.74,1600928000.203125
-69.37,1600928000.21875
-50.15,1600928000.234375
-29.33,1600928000.25
-9.21,1600928000.265625
8.48,1600928000.28125
22.89,1600928000.296875
34.0,1600928000.3125
42.29,1600928000.328125
48.36,1600928000.34375
52.59,1600928000.359375
55.16,1600928000.375
56.09,1600928000.390625
55.47,1600928000.40625
53.6,1600928000.421875
50.94,1600928000.4375
48.05,1600928000.453125
45.41,1600928000.46875
43.39,1600928000.484375
42.21,1600928000.5
41.99,1600928000.515625
42.74,1600928000.53125
44.31,1600928000.546875
46.38,1600928000.5625
48.45,1600928000.578125
49.97,1600928000.59375
50.43,1600928000.609375
49.51,1600928000.625
47.12,1600928000.640625
43.35,1600928000.65625
38.46,1600928000.671875
32.79,1600928000.6875
26.74,1600928000.703125
20.75,1600928000.71875
15.22,1600928000.734375
10.4,1600928000.75
6.25,1600928000.765625
2.42,1600928000.78125
-1.67,1600928000.796875
-6.59,1600928000.8125
-12.58,1600928000.828125
-19.44,1600928000.84375
-26.58,1600928000.859375
-33.26,1600928000.875
-39.06,1600928000.890625
-44.0,1600928000.90625
-48.63,1600928000.921875
-53.73,1600928000.9375
-60.06,1600928000.953125
-68.07,1600928000.96875
-77.78,1600928000.984375
-88.72,1600928001.0
-99.93,1600928001.015625
-110.07,1600928001.03125
-117.47,1600928001.046875
-120.51,1600928001.0625
-118.02,1600928001.078125
-109.65,1600928001.09375
-96.09,1600928001.109375
-78.95,1600928001.125
-60.18,1600928001.140625
-41.62,1600928001.15625
-24.53,1600928001.171875
-9.51,1600928001.1875
3.32,1600928001.203125
14.02,1600928001.21875
22.57,1600928001.234375
28.87,1600928001.25
32.82,1600928001.265625
34.55,1600928001.28125
34.55,1600928001.296875
33.52,1600928001.3125
32.26,1600928001.328125
31.3,1600928001.34375
30.77,1600928001.359375
30.52,1600928001.375
30.27,1600928001.390625
29.87,1600928001.40625
29.4,1600928001.421875
29.14,1600928001.4375
29.35,1600928001.453125
30.04,1600928001.46875
30.88,1600928001.484375
31.28,1600928001.5
30.65,1600928001.515625
28.67,1600928001.53125
25.43,1600928001.546875
21.4,1600928001.5625
17.16,1600928001.578125
13.17,1600928001.59375
9.56,1600928001.609375
6.12,1600928001.625
2.45,1600928001.640625
-1.76,1600928001.65625
-6.62,1600928001.671875
-11.94,1600928001.6875
-17.39,1600928001.703125
-22.62,1600928001.71875
-27.45,1600928001.734375
-31.85,1600928001.75
-35.96,1600928001.765625
-39.96,1600928001.78125
-44.04,1600928001.796875
-48.45,1600928001.8125
-53.47,1600928001.828125
-59.36,1600928001.84375
-66.12,1600928001.859375
-73.24,1600928001.875
-79.54,1600928001.890625
-83.29,1600928001.90625
-82.67,1600928001.921875
-76.43,1600928001.9375
-64.42,1600928001.953125
-47.82,1600928001.96875
-28.75,1600928001.984375
-9.59,1600928002.0
7.75,1600928002.015625
22.26,1600928002.03125
33.84,1600928002.046875
42.92,1600928002.0625
50.02,1600928002.078125
55.48,1600928002.09375
59.42,1600928002.109375
61.91,1600928002.125
63.14,1600928002.140625
63.37,1600928002.15625
62.91,1600928002.171875
61.95,1600928002.1875
60.49,1600928002.203125
58.47,1600928002.21875
55.86,1600928002.234375
52.8,1600928002.25
49.64,1600928002.265625
46.82,1600928002.28125
44.69,1600928002.296875
43.34,1600928002.3125
42.58,1600928002.328125
41.92,1600928002.34375
40.77,1600928002.359375
38.62,1600928002.375
35.31,1600928002.390625
31.0,1600928002.40625
26.17,1600928002.421875
21.37,1600928002.4375
16.97,1600928002.453125
13.0,1600928002.46875
9.12,1600928002.484375
4.83,1600928002.5
-0.21,1600928002.515625
-6.03,1600928002.53125
-12.27,1600928002.546875
-18.37,1600928002.5625
-23.82,1600928002.578125
-28.43,1600928002.59375
-32.36,1600928002.609375
-36.04,1600928002.625
-40.09,1600928002.640625
-44.99,1600928002.65625
-51.12,1600928002.671875
-58.48,1600928002.6875
-66.54,1600928002.703125
-74.11,1600928002.71875
-79.4,1600928002.734375
-80.38,1600928002.75
-75.4,1600928002.765625
-63.91,1600928002.78125
-46.74,1600928002.796875
-26.01,1600928002.8125
-4.45,1600928002.828125
15.51,1600928002.84375
32.32,1600928002.859375
45.55,1600928002.875
55.56,1600928002.890625
63.02,1600928002.90625
68.43,1600928002.921875
72.0,1600928002.9375
73.78,1600928002.953125
73.88,1600928002.96875
72.59,1600928002.984375
70.36,1600928003.0
67.64,1600928003.015625
64.72,1600928003.03125
61.7,1600928003.046875
58.59,1600928003.0625
55.4,1600928003.078125
52.28,1600928003.09375
49.47,1600928003.109375
47.22,1600928003.125
45.55,1600928003.140625
44.26,1600928003.15625
42.9,1600928003.171875
40.97,1600928003.1875
38.17,1600928003.203125
34.39,1600928003.21875
29.73,1600928003.234375
24.17,1600928003.25
17.57,1600928003.265625
9.51,1600928003.28125
-0.39,1600928003.296875
-12.23,1600928003.3125
-25.67,1600928003.328125
-39.87,1600928003.34375
-53.87,1600928003.359375
-66.83,1600928003.375
-78.47,1600928003.390625
-88.98,1600928003.40625
-99.0,1600928003.421875
-109.26,1600928003.4375
-120.37,1600928003.453125
-132.52,1600928003.46875
-145.31,1600928003.484375
-157.65,1600928003.5
-167.76,1600928003.515625
-173.49,1600928003.53125
-172.82,1600928003.546875
-164.54,1600928003.5625
-148.71,1600928003.578125
-126.8,1600928003.59375
-101.36,1600928003.609375
-75.25,1600928003.625
-50.94,1600928003.640625
-29.91,1600928003.65625
-12.63,1600928003.671875
1.32,1600928003.6875
12.63,1600928003.703125
21.96,1600928003.71875
29.7,1600928003.734375
35.94,1600928003.75
40.64,1600928003.765625
43.75,1600928003.78125
45.36,1600928003.796875
45.73,1600928003.8125
45.29,1600928003.828125
44.55,1600928003.84375
43.96,1600928003.859375
43.83,1600928003.875
44.26,1600928003.890625
45.14,1600928003.90625
46.24,1600928003.921875
47.21,1600928003.9375
47.68,1600928003.953125
47.29,1600928003.96875
45.74,1600928003.984375
42.87,1600928004.0
38.79,1600928004.015625
33.86,1600928004.03125
28.61,1600928004.046875
23.52,1600928004.0625
18.76,1600928004.078125
14.12,1600928004.09375
9.1,1600928004.109375
3.21,1600928004.125
-3.74,1600928004.140625
-11.46,1600928004.15625
-19.37,1600928004.171875
-26.79,1600928004.1875
-33.29,1600928004.203125
-38.94,1600928004.21875
-44.25,1600928004.234375
-50.14,1600928004.25
-57.67,1600928004.265625
-67.63,1600928004.28125
-80.17,1600928004.296875
-94.38,1600928004.3125
-108.26,1600928004.328125
-118.98,1600928004.34375
-123.74,1600928004.359375
-120.57,1600928004.375
-109.14,1600928004.390625
-90.86,1600928004.40625
-68.38,1600928004.421875
-44.66,1600928004.4375
-22.13,1600928004.453125
-2.12,1600928004.46875
15.02,1600928004.484375
29.57,1600928004.5
41.9,1600928004.515625
52.24,1600928004.53125
60.58,1600928004.546875
66.91,1600928004.5625
71.36,1600928004.578125
74.21,1600928004.59375
75.8,1600928004.609375
76.43,1600928004.625
76.24,1600928004.640625
75.3,1600928004.65625
73.7,1600928004.671875
71.66,1600928004.6875
69.54,1600928004.703125
67.79,1600928004.71875
66.75,1600928004.734375
66.39,1600928004.75
66.35,1600928004.765625
65.94,1600928004.78125
64.43,1600928004.796875
61.33,1600928004.8125
56.52,1600928004.828125
50.39,1600928004.84375
43.52,1600928004.859375
36.6,1600928004.875
30.03,1600928004.890625
23.9,1600928004.90625
18.0,1600928004.921875
11.91,1600928004.9375
5.26,1600928004.953125
-2.08,1600928004.96875
-9.96,1600928004.984375
-18.03,1600928005.0
-25.86,1600928005.015625
-33.16,1600928005.03125
-39.94,1600928005.046875
-46.5,1600928005.0625
-53.39,1600928005.078125
-61.25,1600928005.09375
-70.63,1600928005.109375
-81.76,1600928005.125
-94.22,1600928005.140625
-106.75,1600928005.15625
-117.28,1600928005.171875
-123.33,1600928005.1875
-122.76,1600928005.203125
-114.52,1600928005.21875
-99.14,1600928005.234375
-78.63,1600928005.25
-55.72,1600928005.265625
-33.01,1600928005.28125
-12.21,1600928005.296875
6.17,1600928005.3125
22.47,1600928005.328125
37.33,1600928005.34375
51.12,1600928005.359375
63.76,1600928005.375
74.71,1600928005.390625
83.35,1600928005.40625
89.29,1600928005.421875
92.57,1600928005.4375
93.61,1600928005.453125
93.09,1600928005.46875
91.72,1600928005.484375
90.08,1600928005.5
88.5,1600928005.515625
87.12,1600928005.53125
85.99,1600928005.546875
85.14,1600928005.5625
84.56,1600928005.578125
84.23,1600928005.59375
83.99,1600928005.609375
83.54,1600928005.625
82.43,1600928005.640625
80.23,1600928005.65625
76.65,1600928005.671875
71.66,1600928005.6875
65.6,1600928005.703125
58.99,1600928005.71875
52.41,1600928005.734375
46.15,1600928005.75
40.11,1600928005.765625
33.7,1600928005.78125
26.14,1600928005.796875
16.81,1600928005.8125
5.53,1600928005.828125
-7.24,1600928005.84375
-20.59,1600928005.859375
-33.5,1600928005.875
-45.19,1600928005.890625
-55.32,1600928005.90625
-64.06,1600928005.921875
-71.94,1600928005.9375
-79.76,1600928005.953125
-88.38,1600928005.96875
-98.6,1600928005.984375
-110.8,1600928006.0
-124.61,1600928006.015625
-138.59,1600928006.03125
-150.3,1600928006.046875
-156.87,1600928006.0625
-155.82,1600928006.078125
-146.05,1600928006.09375
-128.17,1600928006.109375
-104.41,1600928006.125
-77.76,1600928006.140625
-51.05,1600928006.15625
-26.27,1600928006.171875
-4.33,1600928006.1875
14.73,1600928006.203125
31.19,1600928006.21875
45.36,1600928006.234375
57.31,1600928006.25
66.98,1600928006.265625
74.34,1600928006.28125
79.42,1600928006.296875
82.52,1600928006.3125
84.05,1600928006.328125
84.54,1600928006.34375
84.51,1600928006.359375
84.35,1600928006.375
84.29,1600928006.390625
84.35,1600928006.40625
84.42,1600928006.421875
84.36,1600928006.4375
84.16,1600928006.453125
83.91,1600928006.46875
83.74,1600928006.484375
83.66,1600928006.5
83.4,1600928006.515625
82.44,1600928006.53125
80.17,1600928006.546875
76.16,1600928006.5625
70.32,1600928006.578125
63.09,1600928006.59375
55.17,1600928006.609375
47.32,1600928006.625
40.09,1600928006.640625
33.63,1600928006.65625
27.74,1600928006.671875
21.98,1600928006.6875
15.9,1600928006.703125
9.17,1600928006.71875
1.79,1600928006.734375
-5.98,1600928006.75
-13.7,1600928006.765625
-20.87,1600928006.78125
-27.19,1600928006.796875
-32.63,1600928006.8125
-37.42,1600928006.828125
-42.03,1600928006.84375
-47.09,1600928006.859375
-53.23,1600928006.875
-60.99,1600928006.890625
-70.58,1600928006.90625
-81.61,1600928006.921875
-92.77,1600928006.9375
-101.9,1600928006.953125
-106.46,1600928006.96875
-104.34,1600928006.984375
-94.66,1600928007.0
-78.24,1600928007.015625
-57.34,1600928007.03125
-34.81,1600928007.046875
-13.13,1600928007.0625
6.29,1600928007.078125
23.14,1600928007.09375
37.75,1600928007.109375
50.49,1600928007.125
61.37,1600928007.140625
70.03,1600928007.15625
76.05,1600928007.171875
79.29,1600928007.1875
80.07,1600928007.203125
79.04,1600928007.21875
76.99,1600928007.234375
74.55,1600928007.25
72.09,1600928007.265625
69.74,1600928007.28125
67.49,1600928007.296875
65.37,1600928007.3125
63.47,1600928007.328125
61.92,1600928007.34375
60.82,1600928007.359375
60.08,1600928007.375
59.43,1600928007.390625
58.45,1600928007.40625
56.71,1600928007.421875
53.88,1600928007.4375
49.88,1600928007.453125
44.89,1600928007.46875
39.22,1600928007.484375
33.22,1600928007.5
27.17,1600928007.515625
21.23,1600928007.53125
15.5,1600928007.546875
10.08,1600928007.5625
5.05,1600928007.578125
0.47,1600928007.59375
-3.78,1600928007.609375
-7.95,1600928007.625
-12.36,1600928007.640625
-17.27,1600928007.65625
-22.69,1600928007.671875
-28.37,1600928007.6875
-33.89,1600928007.703125
-38.91,1600928007.71875
-43.38,1600928007.734375
-47.54,1600928007.75
-51.91,1600928007.765625
-57.14,1600928007.78125
-63.79,1600928007.796875
-72.2,1600928007.8125
-82.24,1600928007.828125
-93.12,1600928007.84375
-103.26,1600928007.859375
-110.52,1600928007.875
-112.61,1600928007.890625
-107.92,1600928007.90625
-96.09,1600928007.921875
-78.34,1600928007.9375
-57.05,1600928007.953125
-35.09,1600928007.96875
-14.89,1600928007.984375
2.1,1600928008.0
15.55,1600928008.015625
25.9,1600928008.03125
33.89,1600928008.046875
40.11,1600928008.0625
44.91,1600928008.078125
48.39,1600928008.09375
50.62,1600928008.109375
51.79,1600928008.125
52.19,1600928008.140625
52.23,1600928008.15625
52.25,1600928008.171875
52.47,1600928008.1875
52.93,1600928008.203125
53.51,1600928008.21875
53.99,1600928008.234375
54.19,1600928008.25
54.04,1600928008.265625
53.53,1600928008.28125
52.74,1600928008.296875
51.68,1600928008.3125
50.28,1600928008.328125
48.3,1600928008.34375
45.46,1600928008.359375
41.51,1600928008.375
36.43,1600928008.390625
30.45,1600928008.40625
24.03,1600928008.421875
17.75,1600928008.4375
12.03,1600928008.453125
7.05,1600928008.46875
2.67,1600928008.484375
-1.48,1600928008.5
-5.88,1600928008.515625
-10.87,1600928008.53125
-16.56,1600928008.546875
-22.76,1600928008.5625
-29.09,1600928008.578125
-35.08,1600928008.59375
-40.42,1600928008.609375
-45.05,1600928008.625
-49.2,1600928008.640625
-53.36,1600928008.65625
-58.13,1600928008.671875
-64.03,1600928008.6875
-71.38,1600928008.703125
-80.09,1600928008.71875
-89.51,1600928008.734375
-98.28,1600928008.75
-104.57,1600928008.765625
-106.35,1600928008.78125
-102.12,1600928008.796875
-91.45,1600928008.8125
-75.22,1600928008.828125
-55.52,1600928008.84375
-34.91,1600928008.859375
-15.67,1600928008.875
0.85,1600928008.890625
14.35,1600928008.90625
25.28,1600928008.921875
34.31,1600928008.9375
41.92,1600928008.953125
48.24,1600928008.96875
53.18,1600928008.984375
56.66,1600928009.0
58.77,1600928009.015625
59.73,1600928009.03125
59.76,1600928009.046875
59.01,1600928009.0625
57.49,1600928009.078125
55.26,1600928009.09375
52.51,1600928009.109375
49.64,1600928009.125
47.15,1600928009.140625
45.43,1600928009.15625
44.61,1600928009.171875
44.47,1600928009.1875
44.56,1600928009.203125
44.36,1600928009.21875
43.45,1600928009.234375
41.62,1600928009.25
38.88,1600928009.265625
35.39,1600928009.28125
31.39,1600928009.296875
27.11,1600928009.3125
22.73,1600928009.328125
18.34,1600928009.34375
14.02,1600928009.359375
9.82,1600928009.375
5.77,1600928009.390625
1.81,1600928009.40625
-2.27,1600928009.421875
-6.81,1600928009.4375
-12.1,1600928009.453125
-18.25,1600928009.46875
-25.01,1600928009.484375
-31.83,1600928009.5
-38.1,1600928009.515625
-43.43,1600928009.53125
-47.85,1600928009.546875
-51.79,1600928009.5625
-55.91,1600928009.578125
-60.84,1600928009.59375
-67.02,1600928009.609375
-74.61,1600928009.625
-83.45,1600928009.640625
-92.94,1600928009.65625
-101.97,1600928009.671875
-108.86,1600928009.6875
-111.69,1600928009.703125
-108.75,1600928009.71875
-99.27,1600928009.734375
-83.86,1600928009.75
-64.41,1600928009.765625
-43.58,1600928009.78125
-23.88,1600928009.796875
-6.99,1600928009.8125
6.61,1600928009.828125
17.39,1600928009.84375
26.21,1600928009.859375
33.75,1600928009.875
40.28,1600928009.890625
45.69,1600928009.90625
49.84,1600928009.921875
52.71,1600928009.9375
54.55,1600928009.953125
55.65,1600928009.96875
56.22,1600928009.984375
56.29,1600928010.0
55.84,1600928010.015625
54.88,1600928010.03125
53.69,1600928010.046875
52.68,1600928010.0625
52.24,1600928010.078125
52.63,1600928010.09375
53.73,1600928010.109375
55.21,1600928010.125
56.58,1600928010.140625
57.46,1600928010.15625
57.62,1600928010.171875
57.12,1600928010.1875
56.13,1600928010.203125
54.83,1600928010.21875
53.32,1600928010.234375
51.48,1600928010.25
49.07,1600928010.265625
45.79,1600928010.28125
41.43,1600928010.296875
35.99,1600928010.3125
29.58,1600928010.328125
22.39,1600928010.34375
14.61,1600928010.359375
6.39,1600928010.375
-2.13,1600928010.390625
-10.72,1600928010.40625
-19.08,1600928010.421875
-26.88,1600928010.4375
-33.9,1600928010.453125
-40.16,1600928010.46875
-45.92,1600928010.484375
-51.65,1600928010.5
-57.85,1600928010.515625
-64.94,1600928010.53125
-73.14,1600928010.546875
-82.43,1600928010.5625
-92.41,1600928010.578125
-102.21,1600928010.59375
-110.49,1600928010.609375
-115.59,1600928010.625
-115.9,1600928010.640625
-110.36,1600928010.65625
-98.85,1600928010.671875
-82.39,1600928010.6875
-62.92,1600928010.703125
-42.83,1600928010.71875
-24.38,1600928010.734375
-9.15,1600928010.75
2.19,1600928010.765625
9.85,1600928010.78125
14.65,1600928010.796875
17.71,1600928010.8125
20.01,1600928010.828125
22.24,1600928010.84375
24.64,1600928010.859375
27.19,1600928010.875
29.71,1600928010.890625
32.08,1600928010.90625
34.31,1600928010.921875
36.46,1600928010.9375
38.61,1600928010.953125
40.73,1600928010.96875
42.67,1600928010.984375
44.31,1600928011.0
45.57,1600928011.015625
46.49,1600928011.03125
47.11,1600928011.046875
47.46,1600928011.0625
47.39,1600928011.078125
46.59,1600928011.09375
44.72,1600928011.109375
41.51,1600928011.125
36.9,1600928011.140625
31.05,1600928011.15625
24.28,1600928011.171875
16.98,1600928011.1875
9.53,1600928011.203125
2.32,1600928011.21875
-4.28,1600928011.234375
-10.03,1600928011.25
-14.76,1600928011.265625
-18.57,1600928011.28125
-21.76,1600928011.296875
-24.82,1600928011.3125
-28.26,1600928011.328125
-32.39,1600928011.34375
-37.27,1600928011.359375
-42.58,1600928011.375
-47.87,1600928011.390625
-52.68,1600928011.40625
-56.83,1600928011.421875
-60.47,1600928011.4375
-64.08,1600928011.453125
-68.28,1600928011.46875
-73.49,1600928011.484375
-79.69,1600928011.5
-86.2,1600928011.515625
-91.71,1600928011.53125
-94.57,1600928011.546875
-93.25,1600928011.5625
-86.85,1600928011.578125
-75.45,1600928011.59375
-60.13,1600928011.609375
-42.62,1600928011.625
-24.78,1600928011.640625
-8.14,1600928011.65625
6.41,1600928011.671875
18.58,1600928011.6875
28.51,1600928011.703125
36.49,1600928011.71875
42.83,1600928011.734375
47.73,1600928011.75
51.37,1600928011.765625
53.9,1600928011.78125
55.41,1600928011.796875
56.02,1600928011.8125
55.81,1600928011.828125
54.89,1600928011.84375
53.43,1600928011.859375
51.58,1600928011.875
49.54,1600928011.890625
47.48,1600928011.90625
45.58,1600928011.921875
43.98,1600928011.9375
42.8,1600928011.953125
42.09,1600928011.96875
41.71,1600928011.984375
41.4,1600928012.0
40.7,1600928012.015625
39.19,1600928012.03125
36.55,1600928012.046875
32.7,1600928012.0625
27.82,1600928012.078125
22.29,1600928012.09375
16.53,1600928012.109375
10.86,1600928012.125
5.49,1600928012.140625
0.44,1600928012.15625
-4.32,1600928012.171875
-8.86,1600928012.1875
-13.26,1600928012.203125
-17.59,1600928012.21875
-21.95,1600928012.234375
-26.39,1600928012.25
-30.96,1600928012.265625
-35.58,1600928012.28125
-40.11,1600928012.296875
-44.44,1600928012.3125
-48.55,1600928012.328125
-52.6,1600928012.34375
-56.9,1600928012.359375
-61.86,1600928012.375
-67.79,1600928012.390625
-74.64,1600928012.40625
-81.73,1600928012.421875
-87.81,1600928012.4375
-91.14,1600928012.453125
-90.09,1600928012.46875
-83.67,1600928012.484375
-71.9,1600928012.5
-55.94,1600928012.515625
-37.74,1600928012.53125
-19.37,1600928012.546875
-2.51,1600928012.5625
11.88,1600928012.578125
23.56,1600928012.59375
32.68,1600928012.609375
39.5,1600928012.625
44.32,1600928012.640625
47.38,1600928012.65625
49.08,1600928012.671875
49.9,1600928012.6875
50.3,1600928012.703125
50.59,1600928012.71875
50.83,1600928012.734375
50.91,1600928012.75
50.7,1600928012.765625
50.27,1600928012.78125
49.83,1600928012.796875
49.73,1600928012.8125
50.2,1600928012.828125
51.25,1600928012.84375
52.68,1600928012.859375
54.11,1600928012.875
55.15,1600928012.890625
55.48,1600928012.90625
54.91,1600928012.921875
53.35,1600928012.9375
50.77,1600928012.953125
47.28,1600928012.96875
43.06,1600928012.984375
38.35,1600928013.0
33.37,1600928013.015625
28.19,1600928013.03125
22.72,1600928013.046875
16.82,1600928013.0625
10.35,1600928013.078125
3.39,1600928013.09375
-3.8,1600928013.109375
-10.83,1600928013.125
-17.35,1600928013.140625
-23.29,1600928013.15625
-28.9,1600928013.171875
-34.7,1600928013.1875
-41.33,1600928013.203125
-49.24,1600928013.21875
-58.42,1600928013.234375
-68.26,1600928013.25
-77.52,1600928013.265625
-84.6,1600928013.28125
-87.97,1600928013.296875
-86.57,1600928013.3125
-80.17,1600928013.328125
-69.41,1600928013.34375
-55.65,1600928013.359375
-40.52,1600928013.375
-25.54,1600928013.390625
-11.72,1600928013.40625
0.44,1600928013.421875
10.9,1600928013.4375
19.83,1600928013.453125
27.37,1600928013.46875
33.65,1600928013.484375
38.75,1600928013.5
42.85,1600928013.515625
46.18,1600928013.53125
48.91,1600928013.546875
51.04,1600928013.5625
52.3,1600928013.578125
52.35,1600928013.59375
50.99,1600928013.609375
48.46,1600928013.625
45.48,1600928013.640625
42.91,1600928013.65625
41.31,1600928013.671875
40.53,1600928013.6875
39.67,1600928013.703125
37.41,1600928013.71875
32.62,1600928013.734375
24.86,1600928013.75
14.49,1600928013.765625
2.58,1600928013.78125
-9.65,1600928013.796875
-21.12,1600928013.8125
-31.18,1600928013.828125
-39.58,1600928013.84375
-46.32,1600928013.859375
-51.62,1600928013.875
-55.73,1600928013.890625
-59.02,1600928013.90625
-61.85,1600928013.921875
-64.49,1600928013.9375
-67.06,1600928013.953125
-69.49,1600928013.96875
-71.7,1600928013.984375
-73.78,1600928014.0
-76.11,1600928014.015625
-79.31,1600928014.03125
-83.86,1600928014.046875
-89.74,1600928014.0625
-96.13,1600928014.078125
-101.4,1600928014.09375
-103.58,1600928014.109375
-101.03,1600928014.125
-92.99,1600928014.140625
-79.83,1600928014.15625
-62.97,1600928014.171875
-44.32,1600928014.1875
-25.79,1600928014.203125
-8.85,1600928014.21875
5.6,1600928014.234375
17.21,1600928014.25
25.97,1600928014.265625
32.15,1600928014.28125
36.15,1600928014.296875
38.48,1600928014.3125
39.63,1600928014.328125
40.07,1600928014.34375
40.09,1600928014.359375
39.83,1600928014.375
39.26,1600928014.390625
38.3,1600928014.40625
36.86,1600928014.421875
34.88,1600928014.4375
32.43,1600928014.453125
29.7,1600928014.46875
26.98,1600928014.484375
24.56,1600928014.5
22.59,1600928014.515625
21.0,1600928014.53125
19.5,1600928014.546875
17.76,1600928014.5625
15.53,1600928014.578125
12.84,1600928014.59375
9.88,1600928014.609375
6.88,1600928014.625
3.85,1600928014.640625
0.56,1600928014.65625
-3.41,1600928014.671875
-8.35,1600928014.6875
-14.26,1600928014.703125
-20.79,1600928014.71875
-27.33,1600928014.734375
-33.31,1600928014.75
-38.43,1600928014.765625
-42.75,1600928014.78125
-46.63,1600928014.796875
-50.63,1600928014.8125
-55.36,1600928014.828125
-61.31,1600928014.84375
-68.73,1600928014.859375
-77.28,1600928014.875
-85.96,1600928014.890625
-93.04,1600928014.90625
-96.44,1600928014.921875
-94.32,1600928014.9375
-85.76,1600928014.953125
-71.12,1600928014.96875
-51.98,1600928014.984375
-30.68,1600928015.0
-9.49,1600928015.015625
9.91,1600928015.03125
26.69,1600928015.046875
40.71,1600928015.0625
52.18,1600928015.078125
61.36,1600928015.09375
68.46,1600928015.109375
73.7,1600928015.125
77.4,1600928015.140625
79.9,1600928015.15625
81.53,1600928015.171875
82.39,1600928015.1875
82.43,1600928015.203125
81.51,1600928015.21875
79.63,1600928015.234375
77.01,1600928015.25
74.09,1600928015.265625
71.34,1600928015.28125
69.07,1600928015.296875
67.39,1600928015.3125
66.1,1600928015.328125
64.85,1600928015.34375
63.13,1600928015.359375
60.55,1600928015.375
56.83,1600928015.390625
51.97,1600928015.40625
46.22,1600928015.421875
40.01,1600928015.4375
33.85,1600928015.453125
28.03,1600928015.46875
22.63,1600928015.484375
17.44,1600928015.5
12.15,1600928015.515625
6.48,1600928015.53125
0.37,1600928015.546875
-6.02,1600928015.5625
-12.48,1600928015.578125
-18.79,1600928015.59375
-25.01,1600928015.609375
-31.4,1600928015.625
-38.47,1600928015.640625
-46.85,1600928015.65625
-57.05,1600928015.671875
-69.19,1600928015.6875
-82.8,1600928015.703125
-96.59,1600928015.71875
-108.61,1600928015.734375
-116.63,1600928015.75
-118.68,1600928015.765625
-113.71,1600928015.78125
-101.91,1600928015.796875
-84.73,1600928015.8125
-64.47,1600928015.828125
-43.61,1600928015.84375
-24.17,1600928015.859375
-7.3,1600928015.875
6.73,1600928015.890625
18.24,1600928015.90625
27.73,1600928015.921875
35.42,1600928015.9375
41.28,1600928015.953125
45.08,1600928015.96875
46.73,1600928015.984375
46.53,1600928016.0
45.16,1600928016.015625
43.45,1600928016.03125
42.05,1600928016.046875
41.19,1600928016.0625
40.64,1600928016.078125
39.98,1600928016.09375
38.96,1600928016.109375
37.72,1600928016.125
36.74,1600928016.140625
36.49,1600928016.15625
37.17,1600928016.171875
38.36,1600928016.1875
39.3,1600928016.203125
39.14,1600928016.21875
37.42,1600928016.234375
34.29,1600928016.25
30.36,1600928016.265625
26.37,1600928016.28125
22.72,1600928016.296875
19.3,1600928016.3125
15.56,1600928016.328125
10.87,1600928016.34375
4.88,1600928016.359375
-2.32,1600928016.375
-10.25,1600928016.390625
-18.3,1600928016.40625
-25.92,1600928016.421875
-32.86,1600928016.4375
-39.12,1600928016.453125
-44.96,1600928016.46875
-50.9,1600928016.484375
-57.54,1600928016.5
-65.53,1600928016.515625
-75.31,1600928016.53125
-86.79,1600928016.546875
-99.04,1600928016.5625
-110.28,1600928016.578125
-118.08,1600928016.59375
-120.07,1600928016.609375
-114.65,1600928016.625
-101.55,1600928016.640625
-82.02,1600928016.65625
-58.49,1600928016.671875
-33.86,1600928016.6875
-10.6,1600928016.703125
9.64,1600928016.71875
26.37,1600928016.734375
39.82,1600928016.75
50.49,1600928016.765625
58.8,1600928016.78125
64.92,1600928016.796875
68.93,1600928016.8125
71.03,1600928016.828125
71.71,1600928016.84375
71.61,1600928016.859375
71.37,1600928016.875
71.3,1600928016.890625
71.36,1600928016.90625
71.22,1600928016.921875
70.55,1600928016.9375
69.27,1600928016.953125
67.58,1600928016.96875
65.92,1600928016.984375
64.68,1600928017.0
63.95,1600928017.015625
63.44,1600928017.03125
62.52,1600928017.046875
60.54,1600928017.0625
57.05,1600928017.078125
52.14,1600928017.09375
46.31,1600928017.109375
40.33,1600928017.125
34.88,1600928017.140625
30.29,1600928017.15625
26.36,1600928017.171875
22.55,1600928017.1875
18.25,1600928017.203125
13.05,1600928017.21875
6.97,1600928017.234375
0.43,1600928017.25
-5.96,1600928017.265625
-11.55,1600928017.28125
-15.96,1600928017.296875
-19.16,1600928017.3125
-21.5,1600928017.328125
-23.66,1600928017.34375
-26.44,1600928017.359375
-30.69,1600928017.375
-37.08,1600928017.390625
-45.83,1600928017.40625
-56.43,1600928017.421875
-67.45,1600928017.4375
-76.67,1600928017.453125
-81.49,1600928017.46875
-79.84,1600928017.484375
-70.81,1600928017.5
-55.15,1600928017.515625
-35.12,1600928017.53125
-13.73,1600928017.546875
6.24,1600928017.5625
22.94,1600928017.578125
35.8,1600928017.59375
45.26,1600928017.609375
52.18,1600928017.625
57.27,1600928017.640625
60.82,1600928017.65625
62.77,1600928017.671875
62.92,1600928017.6875
61.3,1600928017.703125
58.15,1600928017.71875
53.97,1600928017.734375
49.23,1600928017.75
44.19,1600928017.765625
38.92,1600928017.78125
33.39,1600928017.796875
27.65,1600928017.8125
22.08,1600928017.828125
17.29,1600928017.84375
13.94,1600928017.859375
12.35,1600928017.875
12.35,1600928017.890625
13.17,1600928017.90625
13.76,1600928017.921875
13.15,1600928017.9375
10.72,1600928017.953125
6.43,1600928017.96875
0.68,1600928017.984375
-5.81,1600928018.0
-12.31,1600928018.015625
-18.22,1600928018.03125
-23.19,1600928018.046875
-27.11,1600928018.0625
-30.12,1600928018.078125
-32.55,1600928018.09375
-34.8,1600928018.109375
-37.29,1600928018.125
-40.23,1600928018.140625
-43.55,1600928018.15625
-46.95,1600928018.171875
-50.03,1600928018.1875
-52.46,1600928018.203125
-54.24,1600928018.21875
-55.78,1600928018.234375
-57.87,1600928018.25
-61.5,1600928018.265625
-67.42,1600928018.28125
-75.72,1600928018.296875
-85.47,1600928018.3125
-94.64,1600928018.328125
-100.54,1600928018.34375
-100.61,1600928018.359375
-93.25,1600928018.375
-78.47,1600928018.390625
-57.99,1600928018.40625
-34.71,1600928018.421875
-11.78,1600928018.4375
8.34,1600928018.453125
24.4,1600928018.46875
36.41,1600928018.484375
45.23,1600928018.5
51.95,1600928018.515625
57.42,1600928018.53125
62.0,1600928018.546875
65.65,1600928018.5625
68.11,1600928018.578125
69.21,1600928018.59375
68.93,1600928018.609375
67.47,1600928018.625
65.13,1600928018.640625
62.29,1600928018.65625
59.22,1600928018.671875
56.18,1600928018.6875
53.32,1600928018.703125
50.8,1600928018.71875
48.7,1600928018.734375
47.1,1600928018.75
45.91,1600928018.765625
44.92,1600928018.78125
43.74,1600928018.796875
41.95,1600928018.8125
39.15,1600928018.828125
35.17,1600928018.84375
30.11,1600928018.859375
24.32,1600928018.875
18.3,1600928018.890625
12.49,1600928018.90625
7.15,1600928018.921875
2.33,1600928018.9375
-2.17,1600928018.953125
-6.65,1600928018.96875
-11.46,1600928018.984375
-16.83,1600928019.0
-22.8,1600928019.015625
-29.23,1600928019.03125
-35.78,1600928019.046875
-42.09,1600928019.0625
-47.85,1600928019.078125
-52.93,1600928019.09375
-57.41,1600928019.109375
-61.59,1600928019.125
-65.91,1600928019.140625
-70.9,1600928019.15625
-77.15,1600928019.171875
-85.05,1600928019.1875
-94.66,1600928019.203125
-105.26,1600928019.21875
-115.25,1600928019.234375
-122.26,1600928019.25
-123.76,1600928019.265625
-117.85,1600928019.28125
-104.05,1600928019.296875
-83.49,1600928019.3125
-58.58,1600928019.328125
-32.2,1600928019.34375
-6.93,1600928019.359375
15.53,1600928019.375
34.42,1600928019.390625
49.6,1600928019.40625
61.25,1600928019.421875
69.64,1600928019.4375
75.06,1600928019.453125
77.92,1600928019.46875
78.75,1600928019.484375
78.19,1600928019.5
76.9,1600928019.515625
75.35,1600928019.53125
73.82,1600928019.546875
72.4,1600928019.5625
71.01,1600928019.578125
69.54,1600928019.59375
67.95,1600928019.609375
66.36,1600928019.625
64.96,1600928019.640625
63.91,1600928019.65625
63.16,1600928019.671875
62.47,1600928019.6875
61.45,1600928019.703125
59.74,1600928019.71875
57.2,1600928019.734375
53.96,1600928019.75
50.3,1600928019.765625
46.5,1600928019.78125
42.73,1600928019.796875
38.97,1600928019.8125
35.12,1600928019.828125
31.07,1600928019.84375
26.83,1600928019.859375
22.44,1600928019.875
17.98,1600928019.890625
13.5,1600928019.90625
9.03,1600928019.921875
4.59,1600928019.9375
0.22,1600928019.953125
-3.95,1600928019.96875
-7.74,1600928019.984375
-11.02,1600928020.0
-13.84,1600928020.015625
-16.58,1600928020.03125
-20.01,1600928020.046875
-25.14,1600928020.0625
-32.88,1600928020.078125
-43.72,1600928020.09375
-57.38,1600928020.109375
-72.82,1600928020.125
-88.41,1600928020.140625
-102.22,1600928020.15625
-112.47,1600928020.171875
-117.77,1600928020.1875
-117.32,1600928020.203125
-111.0,1600928020.21875
-99.35,1600928020.234375
-83.56,1600928020.25
-65.3,1600928020.265625
-46.46,1600928020.28125
-28.77,1600928020.296875
-13.43,1600928020.3125
-0.87,1600928020.328125
9.21,1600928020.34375
17.54,1600928020.359375
24.89,1600928020.375
31.67,1600928020.390625
37.91,1600928020.40625
43.24,1600928020.421875
47.28,1600928020.4375
49.77,1600928020.453125
50.75,1600928020.46875
50.46,1600928020.484375
49.23,1600928020.5
47.4,1600928020.515625
45.26,1600928020.53125
43.17,1600928020.546875
41.43,1600928020.5625
40.25,1600928020.578125
39.61,1600928020.59375
39.24,1600928020.609375
38.72,1600928020.625
37.71,1600928020.640625
36.09,1600928020.65625
34.01,1600928020.671875
31.72,1600928020.6875
29.4,1600928020.703125
26.97,1600928020.71875
24.17,1600928020.734375
20.66,1600928020.75
16.3,1600928020.765625
11.21,1600928020.78125
5.74,1600928020.796875
0.34,1600928020.8125
-4.74,1600928020.828125
-9.54,1600928020.84375
-14.38,1600928020.859375
-19.71,1600928020.875
-25.83,1600928020.890625
-32.77,1600928020.90625
-40.19,1600928020.921875
-47.57,1600928020.9375
-54.35,1600928020.953125
-60.25,1600928020.96875
-65.36,1600928020.984375
-70.17,1600928021.0
-75.39,1600928021.015625
-81.75,1600928021.03125
-89.77,1600928021.046875
-99.51,1600928021.0625
-110.39,1600928021.078125
-121.06,1600928021.09375
-129.47,1600928021.109375
-133.24,1600928021.125
-130.25,1600928021.140625
-119.4,1600928021.15625
-101.08,1600928021.171875
-77.17,1600928021.1875
-50.56,1600928021.203125
-24.25,1600928021.21875
-0.61,1600928021.234375
19.15,1600928021.25
34.94,1600928021.265625
47.38,1600928021.28125
57.3,1600928021.296875
65.4,1600928021.3125
71.99,1600928021.328125
77.16,1600928021.34375
80.86,1600928021.359375
83.12,1600928021.375
84.07,1600928021.390625
84.01,1600928021.40625
83.28,1600928021.421875
82.21,1600928021.4375
81.01,1600928021.453125
79.82,1600928021.46875
78.72,1600928021.484375
77.88,1600928021.5
77.49,1600928021.515625
77.69,1600928021.53125
78.37,1600928021.546875
79.12,1600928021.5625
79.24,1600928021.578125
78.09,1600928021.59375
75.27,1600928021.609375
70.89,1600928021.625
65.46,1600928021.640625
59.62,1600928021.65625
53.82,1600928021.671875
48.15,1600928021.6875
42.36,1600928021.703125
36.13,1600928021.71875
29.35,1600928021.734375
22.26,1600928021.75
15.34,1600928021.765625
9.11,1600928021.78125
3.75,1600928021.796875
-0.92,1600928021.8125
-5.47,1600928021.828125
-10.55,1600928021.84375
-16.57,1600928021.859375
-23.49,1600928021.875
-30.84,1600928021.890625
-37.89,1600928021.90625
-44.02,1600928021.921875
-48.98,1600928021.9375
-53.0,1600928021.953125
-56.74,1600928021.96875
-61.07,1600928021.984375
-66.84,1600928022.0
-74.61,1600928022.015625
-84.35,1600928022.03125
-95.21,1600928022.046875
-105.39,1600928022.0625
-112.41,1600928022.078125
-113.65,1600928022.09375
-107.26,1600928022.109375
-92.92,1600928022.125
-72.09,1600928022.140625
-47.7,1600928022.15625
-23.22,1600928022.171875
-1.53,1600928022.1875
15.77,1600928022.203125
28.5,1600928022.21875
37.49,1600928022.234375
43.9,1600928022.25
48.65,1600928022.265625
52.2,1600928022.28125
54.73,1600928022.296875
56.32,1600928022.3125
57.19,1600928022.328125
57.62,1600928022.34375
57.88,1600928022.359375
58.01,1600928022.375
57.84,1600928022.390625
57.07,1600928022.40625
55.56,1600928022.421875
53.41,1600928022.4375
51.07,1600928022.453125
49.08,1600928022.46875
47.93,1600928022.484375
47.7,1600928022.5
48.07,1600928022.515625
48.34,1600928022.53125
47.74,1600928022.546875
45.69,1600928022.5625
42.09,1600928022.578125
37.29,1600928022.59375
32.04,1600928022.609375
27.07,1600928022.625
22.9,1600928022.640625
19.6,1600928022.65625
16.8,1600928022.671875
13.93,1600928022.6875
10.55,1600928022.703125
6.53,1600928022.71875
2.18,1600928022.734375
-1.96,1600928022.75
-5.5,1600928022.765625
-8.35,1600928022.78125
-10.85,1600928022.796875
-13.58,1600928022.8125
-16.99,1600928022.828125
-21.31,1600928022.84375
-26.34,1600928022.859375
-31.63,1600928022.875
-36.7,1600928022.890625
-41.32,1600928022.90625
-45.51,1600928022.921875
-49.64,1600928022.9375
-54.32,1600928022.953125
-60.25,1600928022.96875
-68.07,1600928022.984375
-78.0,1600928023.0
-89.62,1600928023.015625
-101.59,1600928023.03125
-111.76,1600928023.046875
-117.54,1600928023.0625
-116.65,1600928023.078125
-107.92,1600928023.09375
-91.7,1600928023.109375
-69.93,1600928023.125
-45.51,1600928023.140625
-21.45,1600928023.15625
-0.07,1600928023.171875
17.45,1600928023.1875
31.02,1600928023.203125
41.2,1600928023.21875
48.65,1600928023.234375
53.9,1600928023.25
57.22,1600928023.265625
58.89,1600928023.28125
59.34,1600928023.296875
59.16,1600928023.3125
58.92,1600928023.328125
58.85,1600928023.34375
58.76,1600928023.359375
58.19,1600928023.375
56.81,1600928023.390625
54.68,1600928023.40625
52.39,1600928023.421875
50.74,1600928023.4375
50.33,1600928023.453125
51.15,1600928023.46875
52.52,1600928023.484375
53.43,1600928023.5
52.95,1600928023.515625
50.69,1600928023.53125
46.89,1600928023.546875
42.25,1600928023.5625
37.57,1600928023.578125
33.4,1600928023.59375
29.84,1600928023.609375
26.6,1600928023.625
23.25,1600928023.640625
19.42,1600928023.65625
15.04,1600928023.671875
10.32,1600928023.6875
5.59,1600928023.703125
1.18,1600928023.71875
-2.84,1600928023.734375
-6.56,1600928023.75
-10.25,1600928023.765625
-14.19,1600928023.78125
-18.51,1600928023.796875
-23.24,1600928023.8125
-28.32,1600928023.828125
-33.64,1600928023.84375
-39.05,1600928023.859375
-44.41,1600928023.875
-49.47,1600928023.890625
-54.08,1600928023.90625
-58.27,1600928023.921875
-62.49,1600928023.9375
-67.62,1600928023.953125
-74.62,1600928023.96875
-84.09,1600928023.984375
-95.59,1600928024.0
-107.53,1600928024.015625
-117.27,1600928024.03125
-122.0,1600928024.046875
-119.63,1600928024.0625
-109.6,1600928024.078125
-93.06,1600928024.09375
-72.44,1600928024.109375
-50.63,1600928024.125
-30.04,1600928024.140625
-12.12,1600928024.15625
2.73,1600928024.171875
14.85,1600928024.1875
24.77,1600928024.203125
32.86,1600928024.21875
39.24,1600928024.234375
43.92,1600928024.25
47.01,1600928024.265625
48.82,1600928024.28125
49.83,1600928024.296875
50.43,1600928024.3125
50.84,1600928024.328125
51.03,1600928024.34375
50.88,1600928024.359375
50.39,1600928024.375
49.78,1600928024.390625
49.41,1600928024.40625
49.56,1600928024.421875
50.28,1600928024.4375
51.24,1600928024.453125
51.89,1600928024.46875
51.69,1600928024.484375
50.32,1600928024.5
47.75,1600928024.515625
44.22,1600928024.53125
40.12,1600928024.546875
35.8,1600928024.5625
31.53,1600928024.578125
27.42,1600928024.59375
23.4,1600928024.609375
19.29,1600928024.625
14.83,1600928024.640625
9.86,1600928024.65625
4.38,1600928024.671875
-1.39,1600928024.6875
-7.14,1600928024.703125
-12.59,1600928024.71875
-17.71,1600928024.734375
-22.74,1600928024.75
-27.98,1600928024.765625
-33.71,1600928024.78125
-39.91,1600928024.796875
-46.27,1600928024.8125
-52.38,1600928024.828125
-57.9,1600928024.84375
-62.8,1600928024.859375
-67.39,1600928024.875
-72.3,1600928024.890625
-78.3,1600928024.90625
-86.07,1600928024.921875
-95.77,1600928024.9375
-106.83,1600928024.953125
-117.6,1600928024.96875
-125.62,1600928024.984375
-128.16,1600928025.0
-123.1,1600928025.015625
-109.76,1600928025.03125
-89.21,1600928025.046875
-64.05,1600928025.0625
-37.51,1600928025.078125
-12.48,1600928025.09375
9.06,1600928025.109375
26.43,1600928025.125
39.78,1600928025.140625
49.7,1600928025.15625
56.78,1600928025.171875
61.47,1600928025.1875
64.12,1600928025.203125
65.13,1600928025.21875
65.04,1600928025.234375
64.45,1600928025.25
63.86,1600928025.265625
63.5,1600928025.28125
63.31,1600928025.296875
63.08,1600928025.3125
62.63,1600928025.328125
62.02,1600928025.34375
61.57,1600928025.359375
61.65,1600928025.375
62.41,1600928025.390625
63.66,1600928025.40625
64.83,1600928025.421875
65.26,1600928025.4375
64.49,1600928025.453125
62.45,1600928025.46875
59.43,1600928025.484375
55.84,1600928025.5
51.95,1600928025.515625
47.78,1600928025.53125
43.15,1600928025.546875
37.84,1600928025.5625
31.75,1600928025.578125
25.04,1600928025.59375
18.04,1600928025.609375
11.14,1600928025.625
4.62,1600928025.640625
-1.37,1600928025.65625
-6.92,1600928025.671875
-12.24,1600928025.6875
-17.62,1600928025.703125
-23.45,1600928025.71875
-29.99,1600928025.734375
-37.42,1600928025.75
-45.63,1600928025.765625
-54.34,1600928025.78125
-63.1,1600928025.796875
-71.63,1600928025.8125
-79.96,1600928025.828125
-88.53,1600928025.84375
-98.08,1600928025.859375
-109.17,1600928025.875
-121.75,1600928025.890625
-134.72,1600928025.90625
-145.97,1600928025.921875
-152.79,1600928025.9375
-152.71,1600928025.953125
-144.27,1600928025.96875
-127.53,1600928025.984375
-104.17,1600928026.0
-76.93,1600928026.015625
-48.87,1600928026.03125
-22.56,1600928026.046875
0.3,1600928026.0625
19.05,1600928026.078125
33.73,1600928026.09375
44.74,1600928026.109375
52.61,1600928026.125
57.79,1600928026.140625
60.71,1600928026.15625
61.86,1600928026.171875
61.75,1600928026.1875
60.96,1600928026.203125
60.0,1600928026.21875
59.26,1600928026.234375
58.96,1600928026.25
59.19,1600928026.265625
59.96,1600928026.28125
61.21,1600928026.296875
62.88,1600928026.3125
64.9,1600928026.328125
67.06,1600928026.34375
69.07,1600928026.359375
70.6,1600928026.375
71.28,1600928026.390625
70.91,1600928026.40625
69.38,1600928026.421875
66.69,1600928026.4375
62.87,1600928026.453125
57.89,1600928026.46875
51.69,1600928026.484375
44.28,1600928026.5
35.82,1600928026.515625
26.7,1600928026.53125
17.43,1600928026.546875
8.48,1600928026.5625
0.08,1600928026.578125
-7.8,1600928026.59375
-15.42,1600928026.609375
-23.11,1600928026.625
-31.11,1600928026.640625
-39.4,1600928026.65625
-47.78,1600928026.671875
-55.91,1600928026.6875
-63.42,1600928026.703125
-70.12,1600928026.71875
-76.04,1600928026.734375
-81.49,1600928026.75
-87.01,1600928026.765625
-93.34,1600928026.78125
-101.29,1600928026.796875
-111.37,1600928026.8125
-123.42,1600928026.828125
-136.32,1600928026.84375
-147.86,1600928026.859375
-155.15,1600928026.875
-155.31,1600928026.890625
-146.53,1600928026.90625
-128.66,1600928026.921875
-103.46,1600928026.9375
-74.07,1600928026.953125
-44.05,1600928026.96875
-16.41,1600928026.984375
7.1,1600928027.0
26.02,1600928027.015625
40.89,1600928027.03125
52.56,1600928027.046875
61.78,1600928027.0625
68.99,1600928027.078125
74.39,1600928027.09375
78.16,1600928027.109375
80.55,1600928027.125
81.92,1600928027.140625
82.62,1600928027.15625
82.83,1600928027.171875
82.55,1600928027.1875
81.71,1600928027.203125
80.37,1600928027.21875
78.83,1600928027.234375
77.54,1600928027.25
76.93,1600928027.265625
77.15,1600928027.28125
77.87,1600928027.296875
78.44,1600928027.3125
78.08,1600928027.328125
76.25,1600928027.34375
72.88,1600928027.359375
68.28,1600928027.375
63.05,1600928027.390625
57.61,1600928027.40625
52.16,1600928027.421875
46.55,1600928027.4375
40.48,1600928027.453125
33.75,1600928027.46875
26.42,1600928027.484375
18.87,1600928027.5
11.55,1600928027.515625
4.75,1600928027.53125
-1.57,1600928027.546875
-7.83,1600928027.5625
-14.61,1600928027.578125
-22.38,1600928027.59375
-31.27,1600928027.609375
-41.02,1600928027.625
-51.04,1600928027.640625
-60.79,1600928027.65625
-69.84,1600928027.671875
-78.15,1600928027.6875
-86.0,1600928027.703125
-93.93,1600928027.71875
-102.65,1600928027.734375
-112.89,1600928027.75
-125.15,1600928027.765625
-139.31,1600928027.78125
-154.18,1600928027.796875
-167.38,1600928027.8125
-175.68,1600928027.828125
-175.9,1600928027.84375
-166.02,1600928027.859375
-146.09,1600928027.875
-118.35,1600928027.890625
-86.53,1600928027.90625
-54.55,1600928027.921875
-25.39,1600928027.9375
-0.4,1600928027.953125
20.54,1600928027.96875
38.31,1600928027.984375
53.76,1600928028.0
67.27,1600928028.015625
78.81,1600928028.03125
88.13,1600928028.046875
95.2,1600928028.0625
100.22,1600928028.078125
103.57,1600928028.09375
105.58,1600928028.109375
106.45,1600928028.125
106.26,1600928028.140625
105.12,1600928028.15625
103.29,1600928028.171875
101.24,1600928028.1875
99.54,1600928028.203125
98.63,1600928028.21875
98.59,1600928028.234375
99.03,1600928028.25
99.17,1600928028.265625
98.12,1600928028.28125
95.22,1600928028.296875
90.38,1600928028.3125
84.1,1600928028.328125
77.23,1600928028.34375
70.62,1600928028.359375
64.67,1600928028.375
59.23,1600928028.390625
53.69,1600928028.40625
47.43,1600928028.421875
40.12,1600928028.4375
31.91,1600928028.453125
23.41,1600928028.46875
15.3,1600928028.484375
8.12,1600928028.5
1.98,1600928028.515625
-3.42,1600928028.53125
-8.63,1600928028.546875
-14.27,1600928028.5625
-20.73,1600928028.578125
-28.12,1600928028.59375
-36.19,1600928028.609375
-44.53,1600928028.625
-52.65,1600928028.640625
-60.27,1600928028.65625
-67.49,1600928028.671875
-74.85,1600928028.6875
-83.18,1600928028.703125
-93.41,1600928028.71875
-106.15,1600928028.734375
-121.17,1600928028.75
-137.13,1600928028.765625
-151.49,1600928028.78125
-160.94,1600928028.796875
-162.27,1600928028.8125
-153.38,1600928028.828125
-134.15,1600928028.84375
-106.64,1600928028.859375
-74.52,1600928028.875
-41.95,1600928028.890625
-12.37,1600928028.90625
12.38,1600928028.921875
32.13,1600928028.9375
47.89,1600928028.953125
60.97,1600928028.96875
72.3,1600928028.984375
82.11,1600928029.0
90.12,1600928029.015625
95.92,1600928029.03125
99.38,1600928029.046875
100.72,1600928029.0625
100.5,1600928029.078125
99.27,1600928029.09375
97.47,1600928029.109375
95.3,1600928029.125
92.94,1600928029.140625
90.65,1600928029.15625
88.83,1600928029.171875
87.86,1600928029.1875
87.88,1600928029.203125
88.62,1600928029.21875
89.37,1600928029.234375
89.27,1600928029.25
87.64,1600928029.265625
84.27,1600928029.28125
79.56,1600928029.296875
74.24,1600928029.3125
69.08,1600928029.328125
64.47,1600928029.34375
60.29,1600928029.359375
55.93,1600928029.375
50.71,1600928029.390625
44.18,1600928029.40625
36.48,1600928029.421875
28.22,1600928029.4375
20.28,1600928029.453125
13.37,1600928029.46875
7.71,1600928029.484375
2.91,1600928029.5
-1.78,1600928029.515625
-7.18,1600928029.53125
-13.77,1600928029.546875
-21.46,1600928029.5625
-29.69,1600928029.578125
-37.61,1600928029.59375
-44.5,1600928029.609375
-50.07,1600928029.625
-54.72,1600928029.640625
-59.45,1600928029.65625
-65.66,1600928029.671875
-74.75,1600928029.6875
-87.6,1600928029.703125
-104.05,1600928029.71875
-122.61,1600928029.734375
-140.44,1600928029.75
-153.86,1600928029.765625
-159.26,1600928029.78125
-154.19,1600928029.796875
-138.24,1600928029.8125
-113.19,1600928029.828125
-82.52,1600928029.84375
-50.25,1600928029.859375
-19.82,1600928029.875
6.69,1600928029.890625
28.66,1600928029.90625
46.48,1600928029.921875
60.92,1600928029.9375
72.58,1600928029.953125
81.85,1600928029.96875
88.96,1600928029.984375
94.23,1600928030.0
98.17,1600928030.015625
101.44,1600928030.03125
104.66,1600928030.046875
108.21,1600928030.0625
112.1,1600928030.078125
115.98,1600928030.09375
119.3,1600928030.109375
121.48,1600928030.125
122.07,1600928030.140625
120.84,1600928030.15625
117.76,1600928030.171875
112.89,1600928030.1875
106.3,1600928030.203125
98.05,1600928030.21875
88.24,1600928030.234375
77.12,1600928030.25
65.16,1600928030.265625
53.03,1600928030.28125
41.42,1600928030.296875
30.81,1600928030.3125
21.28,1600928030.328125
12.5,1600928030.34375
3.86,1600928030.359375
-5.21,1600928030.375
-14.95,1600928030.390625
-25.21,1600928030.40625
-35.51,1600928030.421875
-45.36,1600928030.4375
-54.58,1600928030.453125
-63.35,1600928030.46875
-72.09,1600928030.484375
-81.14,1600928030.5
-90.54,1600928030.515625
-99.89,1600928030.53125
-108.51,1600928030.546875
-115.79,1600928030.5625
-121.49,1600928030.578125
-125.93,1600928030.59375
-129.93,1600928030.609375
-134.61,1600928030.625
-141.07,1600928030.640625
-149.88,1600928030.65625
-160.79,1600928030.671875
-172.33,1600928030.6875
-181.92,1600928030.703125
-186.36,1600928030.71875
-182.71,1600928030.734375
-169.34,1600928030.75
-146.66,1600928030.765625
-117.06,1600928030.78125
-84.24,1600928030.796875
-51.96,1600928030.8125
-23.02,1600928030.828125
1.36,1600928030.84375
21.29,1600928030.859375
37.61,1600928030.875
51.19,1600928030.890625
62.5,1600928030.90625
71.67,1600928030.921875
78.75,1600928030.9375
83.92,1600928030.953125
87.52,1600928030.96875
89.96,1600928030.984375
91.47,1600928031.0
92.08,1600928031.015625
91.74,1600928031.03125
90.44,1600928031.046875
88.42,1600928031.0625
86.14,1600928031.078125
84.18,1600928031.09375
83.01,1600928031.109375
82.82,1600928031.125
83.39,1600928031.140625
84.14,1600928031.15625
84.27,1600928031.171875
83.05,1600928031.1875
80.06,1600928031.203125
75.39,1600928031.21875
69.58,1600928031.234375
63.49,1600928031.25
57.94,1600928031.265625
53.37,1600928031.28125
49.69,1600928031.296875
46.32,1600928031.3125
42.45,1600928031.328125
37.41,1600928031.34375
30.94,1600928031.359375
23.26,1600928031.375
15.01,1600928031.390625
6.96,1600928031.40625
-0.28,1600928031.421875
-6.48,1600928031.4375
-11.86,1600928031.453125
-16.94,1600928031.46875
-22.34,1600928031.484375
-28.44,1600928031.5
-35.2,1600928031.515625
-42.19,1600928031.53125
-48.7,1600928031.546875
-54.15,1600928031.5625
-58.32,1600928031.578125
-61.63,1600928031.59375
-65.01,1600928031.609375
-69.81,1600928031.625
-77.27,1600928031.640625
-88.05,1600928031.65625
-101.82,1600928031.671875
-116.95,1600928031.6875
-130.75,1600928031.703125
-140.05,1600928031.71875
-142.11,1600928031.734375
-135.5,1600928031.75
-120.67,1600928031.765625
-99.76,1600928031.78125
-75.93,1600928031.796875
-52.35,1600928031.8125
-31.32,1600928031.828125
-13.78,1600928031.84375
0.52,1600928031.859375
12.49,1600928031.875
23.11,1600928031.890625
32.9,1600928031.90625
41.89,1600928031.921875
49.75,1600928031.9375
56.13,1600928031.953125
60.84,1600928031.96875
63.96,1600928031.984375
65.72,1600928032.0
66.39,1600928032.015625
66.24,1600928032.03125
65.53,1600928032.046875
64.58,1600928032.0625
63.75,1600928032.078125
63.42,1600928032.09375
63.78,1600928032.109375
64.8,1600928032.125
66.13,1600928032.140625
67.13,1600928032.15625
67.08,1600928032.171875
65.36,1600928032.1875
61.77,1600928032.203125
56.56,1600928032.21875
50.47,1600928032.234375
44.46,1600928032.25
39.35,1600928032.265625
35.49,1600928032.28125
32.63,1600928032.296875
30.08,1600928032.3125
27.01,1600928032.328125
22.83,1600928032.34375
17.42,1600928032.359375
11.18,1600928032.375
4.76,1600928032.390625
-1.21,1600928032.40625
-6.4,1600928032.421875
-10.94,1600928032.4375
-15.29,1600928032.453125
-20.1,1600928032.46875
-25.96,1600928032.484375
-33.1,1600928032.5
-41.35,1600928032.515625
-50.12,1600928032.53125
-58.69,1600928032.546875
-66.46,1600928032.5625
-73.19,1600928032.578125
-79.14,1600928032.59375
-85.04,1600928032.609375
-91.91,1600928032.625
-100.69,1600928032.640625
-111.86,1600928032.65625
-125.02,1600928032.671875
-138.6,1600928032.6875
-149.93,1600928032.703125
-155.92,1600928032.71875
-153.88,1600928032.734375
-142.52,1600928032.75
-122.5,1600928032.765625
-96.28,1600928032.78125
-67.3,1600928032.796875
-38.89,1600928032.8125
-13.37,1600928032.828125
8.29,1600928032.84375
26.21,1600928032.859375
41.09,1600928032.875
53.61,1600928032.890625
64.17,1600928032.90625
72.93,1600928032.921875
79.95,1600928032.9375
85.33,1600928032.953125
89.25,1600928032.96875
91.9,1600928032.984375
93.44,1600928033.0
93.91,1600928033.015625
93.34,1600928033.03125
91.86,1600928033.046875
89.75,1600928033.0625
87.45,1600928033.078125
85.46,1600928033.09375
84.16,1600928033.109375
83.58,1600928033.125
83.43,1600928033.140625
83.13,1600928033.15625
82.06,1600928033.171875
79.73,1600928033.1875
76.01,1600928033.203125
71.11,1600928033.21875
65.45,1600928033.234375
59.55,1600928033.25
53.83,1600928033.265625
48.49,1600928033.28125
43.48,1600928033.296875
38.54,1600928033.3125
33.29,1600928033.328125
27.38,1600928033.34375
20.71,1600928033.359375
13.46,1600928033.375
6.09,1600928033.390625
-0.85,1600928033.40625
-6.89,1600928033.421875
-11.9,1600928033.4375
-16.16,1600928033.453125
-20.25,1600928033.46875
-24.91,1600928033.484375
-30.74,1600928033.5
-37.94,1600928033.515625
-46.23,1600928033.53125
-54.87,1600928033.546875
-63.03,1600928033.5625
-70.07,1600928033.578125
-75.86,1600928033.59375
-80.85,1600928033.609375
-85.92,1600928033.625
-92.13,1600928033.640625
-100.36,1600928033.65625
-110.92,1600928033.671875
-123.3,1600928033.6875
-135.95,1600928033.703125
-146.47,1600928033.71875
-152.07,1600928033.734375
-150.34,1600928033.75
-140.04,1600928033.765625
-121.64,1600928033.78125
-97.26,1600928033.796875
-70.14,1600928033.8125
-43.56,1600928033.828125
-20.05,1600928033.84375
-0.8,1600928033.859375
14.16,1600928033.875
25.61,1600928033.890625
34.49,1600928033.90625
41.63,1600928033.921875
47.49,1600928033.9375
52.26,1600928033.953125
56.07,1600928033.96875
59.04,1600928033.984375
61.33,1600928034.0
63.19,1600928034.015625
64.77,1600928034.03125
66.21,1600928034.046875
67.53,1600928034.0625
68.79,1600928034.078125
70.02,1600928034.09375
71.27,1600928034.109375
72.51,1600928034.125
73.53,1600928034.140625
73.91,1600928034.15625
73.19,1600928034.171875
71.0,1600928034.1875
67.31,1600928034.203125
62.49,1600928034.21875
57.2,1600928034.234375
52.13,1600928034.25
47.81,1600928034.265625
44.31,1600928034.28125
41.37,1600928034.296875
38.42,1600928034.3125
34.89,1600928034.328125
30.38,1600928034.34375
24.85,1600928034.359375
18.59,1600928034.375
12.14,1600928034.390625
6.02,1600928034.40625
0.55,1600928034.421875
-4.34,1600928034.4375
-9.1,1600928034.453125
-14.38,1600928034.46875
-20.75,1600928034.484375
-28.41,1600928034.5
-37.04,1600928034.515625
-46.01,1600928034.53125
-54.56,1600928034.546875
-62.21,1600928034.5625
-68.91,1600928034.578125
-75.08,1600928034.59375
-81.51,1600928034.609375
-89.07,1600928034.625
-98.47,1600928034.640625
-109.89,1600928034.65625
-122.67,1600928034.671875
-135.17,1600928034.6875
-144.9,1600928034.703125
-149.07,1600928034.71875
-145.45,1600928034.734375
-133.11,1600928034.75
-112.92,1600928034.765625
-87.38,1600928034.78125
-59.73,1600928034.796875
-33.08,1600928034.8125
-9.51,1600928034.828125
10.25,1600928034.84375
26.5,1600928034.859375
40.03,1600928034.875
51.57,1600928034.890625
61.49,1600928034.90625
69.8,1600928034.921875
76.39,1600928034.9375
81.19,1600928034.953125
84.32,1600928034.96875
86.04,1600928034.984375
86.63,1600928035.0
86.33,1600928035.015625
85.35,1600928035.03125
83.93,1600928035.046875
82.47,1600928035.0625
81.47,1600928035.078125
81.35,1600928035.09375
82.27,1600928035.109375
83.93,1600928035.125
85.58,1600928035.140625
86.31,1600928035.15625
85.33,1600928035.171875
82.32,1600928035.1875
77.48,1600928035.203125
71.47,1600928035.21875
65.11,1600928035.234375
59.0,1600928035.25
53.44,1600928035.265625
48.27,1600928035.28125
43.12,1600928035.296875
37.52,1600928035.3125
31.18,1600928035.328125
24.14,1600928035.34375
16.75,1600928035.359375
9.46,1600928035.375
2.7,1600928035.390625
-3.36,1600928035.40625
-8.88,1600928035.421875
-14.26,1600928035.4375
-19.98,1600928035.453125
-26.39,1600928035.46875
-33.6,1600928035.484375
-41.43,1600928035.5
-49.54,1600928035.515625
-57.49,1600928035.53125
-64.92,1600928035.546875
-71.69,1600928035.5625
-77.91,1600928035.578125
-84.04,1600928035.59375
-90.81,1600928035.609375
-99.03,1600928035.625
-109.14,1600928035.640625
-120.75,1600928035.65625
-132.37,1600928035.671875
-141.5,1600928035.6875
-145.25,1600928035.703125
-141.32,1600928035.71875
-128.83,1600928035.734375
-108.8,1600928035.75
-83.82,1600928035.765625
-57.26,1600928035.78125
-32.12,1600928035.796875
-10.3,1600928035.8125
7.63,1600928035.828125
22.12,1600928035.84375
33.99,1600928035.859375
43.91,1600928035.875
52.14,1600928035.890625
58.66,1600928035.90625
63.4,1600928035.921875
66.48,1600928035.9375
68.25,1600928035.953125
69.14,1600928035.96875
69.53,1600928035.984375
69.62,1600928036.0
69.47,1600928036.015625
69.1,1600928036.03125
68.63,1600928036.046875
68.22,1600928036.0625
68.08,1600928036.078125
68.33,1600928036.09375
68.91,1600928036.109375
69.49,1600928036.125
69.57,1600928036.140625
68.64,1600928036.15625
66.35,1600928036.171875
62.65,1600928036.1875
57.86,1600928036.203125
52.48,1600928036.21875
47.04,1600928036.234375
41.84,1600928036.25
36.81,1600928036.265625
31.6,1600928036.28125
25.79,1600928036.296875
19.18,1600928036.3125
11.95,1600928036.328125
4.58,1600928036.34375
-2.31,1600928036.359375
-8.36,1600928036.375
-13.57,1600928036.390625
-18.36,1600928036.40625
-23.31,1600928036.421875
-28.93,1600928036.4375
-35.4,1600928036.453125
-42.51,1600928036.46875
-49.8,1600928036.484375
-56.74,1600928036.5
-62.98,1600928036.515625
-68.5,1600928036.53125
-73.59,1600928036.546875
-78.82,1600928036.5625
-84.88,1600928036.578125
-92.43,1600928036.59375
-101.86,1600928036.609375
-112.93,1600928036.625
-124.55,1600928036.640625
-134.69,1600928036.65625
-140.75,1600928036.671875
-140.27,1600928036.6875
-131.8,1600928036.703125
-115.53,1600928036.71875
-93.33,1600928036.734375
-68.19,1600928036.75
-43.23,1600928036.765625
-20.84,1600928036.78125
-2.14,1600928036.796875
12.93,1600928036.8125
