PPG GREEN,time
2234353.0,1600927960.001
2226000.0,1600927960.04
2219107.0,1600927960.081
2214273.0,1600927960.122
2211239.0,1600927960.161
2209333.0,1600927960.201
2207333.0,1600927960.242
2205173.0,1600927960.281
2208359.0,1600927960.322
2213210.0,1600927960.362
2221239.0,1600927960.401
2228366.0,1600927960.441
2234387.0,1600927960.483
2241990.0,1600927960.522
2250239.0,1600927960.562
2258851.0,1600927960.603
2266311.0,1600927960.642
2270647.0,1600927960.682
2272714.0,1600927960.724
2272796.0,1600927960.762
2266125.0,1600927960.802
2256015.0,1600927960.843
2248991.0,1600927960.882
2238913.0,1600927960.964
2243651.0,1600927960.923
2235730.0,1600927961.003
2234149.0,1600927961.043
2233660.0,1600927961.084
2232755.0,1600927961.124
2232808.0,1600927961.163
2233496.0,1600927961.204
2234922.0,1600927961.243
2237320.0,1600927961.283
2239938.0,1600927961.325
2242489.0,1600927961.363
2245409.0,1600927961.404
2248353.0,1600927961.445
2251392.0,1600927961.484
2254517.0,1600927961.524
2260154.0,1600927961.566
2264614.0,1600927961.605
2269051.0,1600927961.645
2273103.0,1600927961.686
2274523.0,1600927961.726
2270819.0,1600927961.765
2264628.0,1600927961.806
2261135.0,1600927961.846
2260241.0,1600927961.886
2259955.0,1600927961.927
2261383.0,1600927961.966
2266020.0,1600927962.047
2267980.0,1600927962.086
2270150.0,1600927962.127
2272880.0,1600927962.167
2276075.0,1600927962.206
2279386.0,1600927962.247
2283152.0,1600927962.288
2286925.0,1600927962.327
2290128.0,1600927962.367
2293241.0,1600927962.408
2296828.0,1600927962.447
2300054.0,1600927962.487
2303872.0,1600927962.529
2308281.0,1600927962.567
2313396.0,1600927962.607
2319514.0,1600927962.649
2324330.0,1600927962.688
2324077.0,1600927962.728
2318419.0,1600927962.769
2312560.0,1600927962.808
2308614.0,1600927962.848
2300177.0,1600927962.968
2299606.0,1600927963.009
2301508.0,1600927962.929
2299765.0,1600927963.048
2304654.0,1600927962.889
2300133.0,1600927963.089
2301044.0,1600927963.13
2302092.0,1600927963.169
2304119.0,1600927963.209
2263883.0,1600927962.006
2306177.0,1600927963.25
2308019.0,1600927963.289
2309654.0,1600927963.33
2310895.0,1600927963.37
2312295.0,1600927963.409
2313778.0,1600927963.449
2315176.0,1600927963.491
2316954.0,1600927963.53
2318912.0,1600927963.57
2321713.0,1600927963.611
2323865.0,1600927963.65
2325758.0,1600927963.69
2326208.0,1600927963.732
2321906.0,1600927963.77
2315795.0,1600927963.81
2310730.0,1600927963.851
2304541.0,1600927963.931
2303415.0,1600927963.972
2303069.0,1600927964.011
2306970.0,1600927963.89
2301585.0,1600927964.092
2302343.0,1600927964.051
2301241.0,1600927964.132
2301563.0,1600927964.171
2301883.0,1600927964.212
2303446.0,1600927964.251
2304571.0,1600927964.291
2305955.0,1600927964.333
2307164.0,1600927964.371
2308551.0,1600927964.411
2309817.0,1600927964.453
2311477.0,1600927964.492
2312898.0,1600927964.532
2314181.0,1600927964.573
2314673.0,1600927964.612
2315395.0,1600927964.652
2315991.0,1600927964.693
2316346.0,1600927964.733
2312702.0,1600927964.772
2304328.0,1600927964.813
2295145.0,1600927964.852
2287583.0,1600927964.892
2281845.0,1600927964.934
2277982.0,1600927964.972
2277471.0,1600927965.012
2277911.0,1600927965.054
2277483.0,1600927965.093
2276295.0,1600927965.133
2275431.0,1600927965.174
2275691.0,1600927965.213
2276772.0,1600927965.253
2278029.0,1600927965.294
2280365.0,1600927965.334
2283003.0,1600927965.373
2285197.0,1600927965.414
2290243.0,1600927965.493
2287389.0,1600927965.453
2293151.0,1600927965.535
2296242.0,1600927965.573
2299334.0,1600927965.613
2303194.0,1600927965.655
2306296.0,1600927965.694
2308643.0,1600927965.734
2306460.0,1600927965.775
2301737.0,1600927965.814
2297737.0,1600927965.854
2295091.0,1600927965.895
2293900.0,1600927965.935
2293118.0,1600927965.974
2293445.0,1600927966.015
2294196.0,1600927966.054
2294408.0,1600927966.094
2294718.0,1600927966.136
2295826.0,1600927966.174
2297125.0,1600927966.214
2298371.0,1600927966.256
2300087.0,1600927966.295
2301702.0,1600927966.335
2303003.0,1600927966.376
2303474.0,1600927966.415
2303165.0,1600927966.455
2301871.0,1600927966.496
2301124.0,1600927966.536
2300635.0,1600927966.575
2301349.0,1600927966.616
2302171.0,1600927966.655
2301062.0,1600927966.696
2296122.0,1600927966.737
2290013.0,1600927966.776
2285122.0,1600927966.816
2281868.0,1600927966.857
2279275.0,1600927966.896
2276855.0,1600927966.977
2273735.0,1600927967.056
2272123.0,1600927967.137
2272271.0,1600927967.176
2275196.0,1600927967.016
2272617.0,1600927967.097
2277853.0,1600927966.937
2272650.0,1600927967.218
2273443.0,1600927967.257
2274451.0,1600927967.297
2275386.0,1600927967.339
2276537.0,1600927967.377
2278326.0,1600927967.417
2280503.0,1600927967.458
2283061.0,1600927967.497
2285975.0,1600927967.538
2288113.0,1600927967.578
2286974.0,1600927967.617
2283496.0,1600927967.658
2282388.0,1600927967.699
2282250.0,1600927967.738
2282335.0,1600927967.778
2283656.0,1600927967.819
2285045.0,1600927967.858
2286042.0,1600927967.898
2287007.0,1600927967.94
2287813.0,1600927967.978
2288932.0,1600927968.018
2290479.0,1600927968.059
2292623.0,1600927968.098
2294767.0,1600927968.139
2297064.0,1600927968.18
2299698.0,1600927968.219
2301666.0,1600927968.259
2303609.0,1600927968.3
2305724.0,1600927968.34
2307724.0,1600927968.379
2309740.0,1600927968.42
2309691.0,1600927968.459
2306912.0,1600927968.499
2304404.0,1600927968.541
2302945.0,1600927968.579
2302454.0,1600927968.62
2303162.0,1600927968.661
2304259.0,1600927968.7
2305199.0,1600927968.741
2305954.0,1600927968.781
2306120.0,1600927968.82
2306685.0,1600927968.86
2307797.0,1600927968.901
2309268.0,1600927968.941
2310828.0,1600927968.98
2312598.0,1600927969.022
2314322.0,1600927969.061
2316110.0,1600927969.101
2318120.0,1600927969.142
2319904.0,1600927969.181
2320948.0,1600927969.221
2319718.0,1600927969.262
2317121.0,1600927969.301
2314891.0,1600927969.342
2313589.0,1600927969.382
2313248.0,1600927969.421
2313085.0,1600927969.461
2313833.0,1600927969.503
2314458.0,1600927969.542
2314540.0,1600927969.582
2314834.0,1600927969.623
2314761.0,1600927969.662
2314791.0,1600927969.702
2315098.0,1600927969.744
2314715.0,1600927969.782
2314376.0,1600927969.822
2314877.0,1600927969.863
2314763.0,1600927969.902
2315426.0,1600927969.943
2315374.0,1600927969.984
2313499.0,1600927970.023
2310917.0,1600927970.063
2308829.0,1600927970.104
2307942.0,1600927970.144
2306948.0,1600927970.183
2306822.0,1600927970.224
2306371.0,1600927970.263
2306257.0,1600927970.303
2306324.0,1600927970.345
2306014.0,1600927970.383
2306251.0,1600927970.424
2307094.0,1600927970.465
2307845.0,1600927970.504
2310662.0,1600927970.585
2309288.0,1600927970.545
2311744.0,1600927970.624
2313753.0,1600927970.664
2315321.0,1600927970.705
2316922.0,1600927970.745
2315972.0,1600927970.784
2313849.0,1600927970.825
2312586.0,1600927970.865
2312126.0,1600927970.905
2311377.0,1600927970.946
2311643.0,1600927970.985
2312036.0,1600927971.025
2312594.0,1600927971.066
2313242.0,1600927971.105
2314062.0,1600927971.146
2315132.0,1600927971.186
2316170.0,1600927971.225
2317092.0,1600927971.265
2318623.0,1600927971.307
2319442.0,1600927971.346
2320709.0,1600927971.386
2322002.0,1600927971.427
2323363.0,1600927971.466
2324939.0,1600927971.506
2325633.0,1600927971.548
2324330.0,1600927971.586
2322256.0,1600927971.626
2320527.0,1600927971.667
2318966.0,1600927971.706
2317949.0,1600927971.747
2317579.0,1600927971.788
2317426.0,1600927971.827
2317413.0,1600927971.867
2317705.0,1600927971.908
2317694.0,1600927971.948
2318259.0,1600927971.987
2319498.0,1600927972.028
2320457.0,1600927972.067
2321670.0,1600927972.107
2322609.0,1600927972.149
2323704.0,1600927972.187
2324854.0,1600927972.228
2325586.0,1600927972.269
2325820.0,1600927972.308
2326902.0,1600927972.348
2327492.0,1600927972.389
2326427.0,1600927972.428
2322833.0,1600927972.468
2318355.0,1600927972.509
2313918.0,1600927972.549
2310447.0,1600927972.588
2307653.0,1600927972.629
2306223.0,1600927972.669
2306935.0,1600927972.709
2307492.0,1600927972.75
2307989.0,1600927972.789
2308040.0,1600927972.829
2308742.0,1600927972.87
2309353.0,1600927972.909
2310799.0,1600927972.95
2312325.0,1600927972.99
2313165.0,1600927973.029
2314351.0,1600927973.069
2316735.0,1600927973.11
2318637.0,1600927973.15
2320271.0,1600927973.19
2321911.0,1600927973.231
2323417.0,1600927973.27
2324162.0,1600927973.31
2321189.0,1600927973.352
2317025.0,1600927973.39
2313075.0,1600927973.43
2310203.0,1600927973.471
2308847.0,1600927973.51
2308765.0,1600927973.551
2308461.0,1600927973.633
2308579.0,1600927973.672
2308953.0,1600927973.712
2309699.0,1600927973.753
2310969.0,1600927973.793
2312334.0,1600927973.832
2313742.0,1600927973.873
2315196.0,1600927973.912
2316611.0,1600927973.952
2317434.0,1600927973.994
2318666.0,1600927974.033
2320710.0,1600927974.073
2322424.0,1600927974.114
2324119.0,1600927974.153
2325681.0,1600927974.194
2326703.0,1600927974.234
2325487.0,1600927974.273
2320080.0,1600927974.313
2313573.0,1600927974.354
2308377.0,1600927974.394
2303992.0,1600927974.434
2300704.0,1600927974.475
2298725.0,1600927974.514
2297405.0,1600927974.554
2296416.0,1600927974.597
2294694.0,1600927974.633
2294102.0,1600927974.671
2293251.0,1600927974.706
2292540.0,1600927974.741
2293443.0,1600927974.779
2294676.0,1600927974.82
2295728.0,1600927974.859
2297184.0,1600927974.899
2298651.0,1600927974.94
2299432.0,1600927974.98
2301391.0,1600927975.02
2304241.0,1600927975.061
2306699.0,1600927975.1
2309323.0,1600927975.139
2309917.0,1600927975.18
2306081.0,1600927975.219
2300292.0,1600927975.259
2295710.0,1600927975.301
2292061.0,1600927975.34
2289030.0,1600927975.381
2286826.0,1600927975.421
2285099.0,1600927975.459
2284055.0,1600927975.499
2283973.0,1600927975.54
2284544.0,1600927975.58
2285869.0,1600927975.62
2287967.0,1600927975.661
2293383.0,1600927975.7
2298787.0,1600927975.74
2301105.0,1600927975.782
2303711.0,1600927975.819
2306143.0,1600927975.859
2308085.0,1600927975.9
2310793.0,1600927975.94
2313359.0,1600927975.981
2316186.0,1600927976.021
2318444.0,1600927976.06
2318582.0,1600927976.098
2313237.0,1600927976.14
2306512.0,1600927976.18
2301032.0,1600927976.219
2297115.0,1600927976.26
2294125.0,1600927976.299
2292602.0,1600927976.34
2292047.0,1600927976.382
2291854.0,1600927976.42
2290230.0,1600927976.461
2289385.0,1600927976.502
2289503.0,1600927976.541
2290518.0,1600927976.58
2292277.0,1600927976.62
2294526.0,1600927976.66
2297966.0,1600927976.7
2301554.0,1600927976.741
2305000.0,1600927976.781
2307969.0,1600927976.821
2310721.0,1600927976.862
2312757.0,1600927976.901
2314636.0,1600927976.939
2316580.0,1600927976.981
2316400.0,1600927977.02
2310756.0,1600927977.06
2303718.0,1600927977.101
2297753.0,1600927977.141
2293680.0,1600927977.182
2290848.0,1600927977.222
2289678.0,1600927977.261
2289221.0,1600927977.3
2289482.0,1600927977.341
2288967.0,1600927977.381
2287887.0,1600927977.42
2287275.0,1600927977.462
2286737.0,1600927977.501
2287248.0,1600927977.541
2287920.0,1600927977.583
2288722.0,1600927977.62
2289156.0,1600927977.66
2289493.0,1600927977.701
2290047.0,1600927977.74
2291022.0,1600927977.781
2291933.0,1600927977.822
2293091.0,1600927977.861
2294651.0,1600927977.901
2293618.0,1600927977.943
2287068.0,1600927977.981
2279783.0,1600927978.02
2273512.0,1600927978.061
2268552.0,1600927978.101
2265266.0,1600927978.141
2263012.0,1600927978.183
2262003.0,1600927978.221
2261518.0,1600927978.262
2260343.0,1600927978.303
2259912.0,1600927978.34
2260139.0,1600927978.381
2261258.0,1600927978.422
2262826.0,1600927978.461
2264597.0,1600927978.501
2267307.0,1600927978.542
2269884.0,1600927978.582
2272919.0,1600927978.622
2276553.0,1600927978.66
2280536.0,1600927978.699
2283876.0,1600927978.739
2286401.0,1600927978.782
2289287.0,1600927978.82
2287417.0,1600927978.86
2280304.0,1600927978.901
2274036.0,1600927978.941
2269789.0,1600927978.982
2267039.0,1600927979.022
2265448.0,1600927979.061
2265408.0,1600927979.102
2265354.0,1600927979.143
2265456.0,1600927979.183
2265202.0,1600927979.22
2265295.0,1600927979.262
2265887.0,1600927979.301
2267375.0,1600927979.341
2268666.0,1600927979.383
2270468.0,1600927979.422
2272459.0,1600927979.462
2275076.0,1600927979.503
2277077.0,1600927979.541
2279341.0,1600927979.581
2281873.0,1600927979.622
2284884.0,1600927979.661
2288175.0,1600927979.702
2288811.0,1600927979.743
2283647.0,1600927979.783
2277049.0,1600927979.822
2271569.0,1600927979.864
2268335.0,1600927979.901
2266018.0,1600927979.941
2265417.0,1600927979.983
2265023.0,1600927980.021
2264966.0,1600927980.062
2264137.0,1600927980.103
2263144.0,1600927980.142
2263441.0,1600927980.183
2263928.0,1600927980.224
2267226.0,1600927980.301
2265262.0,1600927980.261
2271389.0,1600927980.382
2269355.0,1600927980.343
2275187.0,1600927980.463
2273213.0,1600927980.422
2276649.0,1600927980.502
2279101.0,1600927980.543
2281380.0,1600927980.585
2279342.0,1600927980.621
2271031.0,1600927980.661
2262140.0,1600927980.703
2254824.0,1600927980.742
2249521.0,1600927980.783
2245359.0,1600927980.823
2243687.0,1600927980.863
2242615.0,1600927980.903
2240453.0,1600927980.944
2239672.0,1600927980.982
2240077.0,1600927981.021
2243586.0,1600927981.063
2253527.0,1600927981.102
2260521.0,1600927981.142
2265609.0,1600927981.184
2270225.0,1600927981.22
2274243.0,1600927981.261
2279287.0,1600927981.302
2284215.0,1600927981.341
2288037.0,1600927981.382
2291611.0,1600927981.423
2292574.0,1600927981.462
2287036.0,1600927981.503
2278909.0,1600927981.544
2271710.0,1600927981.584
2266667.0,1600927981.623
2263361.0,1600927981.663
2261763.0,1600927981.702
2261422.0,1600927981.742
2261352.0,1600927981.784
2261532.0,1600927981.823
2261267.0,1600927981.863
2262231.0,1600927981.904
2263288.0,1600927981.943
2264757.0,1600927981.984
2266995.0,1600927982.023
2270059.0,1600927982.062
2273053.0,1600927982.102
2275728.0,1600927982.144
2278333.0,1600927982.183
2281164.0,1600927982.223
2284029.0,1600927982.264
2286426.0,1600927982.304
2283790.0,1600927982.342
2275047.0,1600927982.384
2266889.0,1600927982.422
2261236.0,1600927982.463
2257161.0,1600927982.504
2254003.0,1600927982.543
2253060.0,1600927982.584
2252615.0,1600927982.625
2251746.0,1600927982.664
2250740.0,1600927982.702
2249807.0,1600927982.743
2249273.0,1600927982.783
2248704.0,1600927982.823
2248662.0,1600927982.864
2248663.0,1600927982.903
2248941.0,1600927982.943
2249281.0,1600927982.985
2249379.0,1600927983.024
2249434.0,1600927983.062
2249524.0,1600927983.103
2249502.0,1600927983.143
2246226.0,1600927983.184
2235485.0,1600927983.224
2223417.0,1600927983.263
2213433.0,1600927983.304
2206127.0,1600927983.345
2200380.0,1600927983.383
2197261.0,1600927983.423
2195684.0,1600927983.464
2193994.0,1600927983.503
2191619.0,1600927983.543
2189852.0,1600927983.585
2188658.0,1600927983.624
2188975.0,1600927983.664
2189695.0,1600927983.705
2190006.0,1600927983.742
2190260.0,1600927983.783
2190920.0,1600927983.824
2190581.0,1600927983.863
2190284.0,1600927983.903
2189914.0,1600927983.944
2190099.0,1600927983.984
2189960.0,1600927984.023
2181578.0,1600927984.065
2167115.0,1600927984.104
2155026.0,1600927984.144
2146814.0,1600927984.186
2142108.0,1600927984.223
2139577.0,1600927984.263
2138790.0,1600927984.304
2138459.0,1600927984.344
2138412.0,1600927984.385
2137605.0,1600927984.425
2138437.0,1600927984.464
2140028.0,1600927984.505
2141966.0,1600927984.544
2144030.0,1600927984.584
2146215.0,1600927984.623
2148633.0,1600927984.665
2150938.0,1600927984.704
2153548.0,1600927984.744
2156081.0,1600927984.786
2158845.0,1600927984.825
2161837.0,1600927984.865
2164361.0,1600927984.904
2160899.0,1600927984.943
2152552.0,1600927984.984
2145097.0,1600927985.025
2140020.0,1600927985.064
2136243.0,1600927985.104
2133098.0,1600927985.146
2132580.0,1600927985.186
2132281.0,1600927985.223
2132315.0,1600927985.264
2132392.0,1600927985.304
2133063.0,1600927985.344
2134953.0,1600927985.386
2137181.0,1600927985.425
2140276.0,1600927985.465
2143543.0,1600927985.504
2147017.0,1600927985.544
2150528.0,1600927985.584
2153908.0,1600927985.628
2157527.0,1600927985.667
2161458.0,1600927985.707
2165224.0,1600927985.748
2169024.0,1600927985.788
2172044.0,1600927985.827
2171119.0,1600927985.868
2166188.0,1600927985.907
2161261.0,1600927985.947
2158345.0,1600927985.989
2156044.0,1600927986.027
2155704.0,1600927986.068
2156409.0,1600927986.109
2158126.0,1600927986.148
2160738.0,1600927986.189
2165494.0,1600927986.229
2172136.0,1600927986.268
2175543.0,1600927986.308
2179446.0,1600927986.347
2183660.0,1600927986.387
2187346.0,1600927986.427
2190797.0,1600927986.468
2194609.0,1600927986.507
2198398.0,1600927986.547
2201814.0,1600927986.589
2205028.0,1600927986.628
2208600.0,1600927986.668
2213056.0,1600927986.709
2216792.0,1600927986.748
2219530.0,1600927986.789
2219681.0,1600927986.83
2219484.0,1600927986.867
2220694.0,1600927986.907
2223262.0,1600927986.948
2226099.0,1600927986.988
2232048.0,1600927987.069
2234404.0,1600927987.108
2228871.0,1600927987.028
2237149.0,1600927987.149
2239232.0,1600927987.191
2244428.0,1600927987.267
2247546.0,1600927987.309
2241602.0,1600927987.227
2250362.0,1600927987.348
2253206.0,1600927987.389
2256328.0,1600927987.43
2259403.0,1600927987.469
2262714.0,1600927987.509
2266339.0,1600927987.548
2272577.0,1600927987.628
2269332.0,1600927987.588
2279227.0,1600927987.708
2282626.0,1600927987.749
2283674.0,1600927987.79
2275915.0,1600927987.669
2283647.0,1600927987.829
2284456.0,1600927987.908
2283829.0,1600927987.869
2285986.0,1600927987.989
2287538.0,1600927988.029
2285176.0,1600927987.948
2288753.0,1600927988.068
2293416.0,1600927988.19
2294842.0,1600927988.23
2297069.0,1600927988.269
2291550.0,1600927988.15
2290200.0,1600927988.109
2301565.0,1600927988.348
2299180.0,1600927988.308
2303675.0,1600927988.39
2305616.0,1600927988.429
2307956.0,1600927988.469
2312655.0,1600927988.549
2310446.0,1600927988.51
2314862.0,1600927988.588
2316903.0,1600927988.629
2321290.0,1600927988.708
2319051.0,1600927988.668
2322100.0,1600927988.79
2322264.0,1600927988.75
2321598.0,1600927988.829
2321258.0,1600927988.87
2321378.0,1600927988.907
2322534.0,1600927988.948
2323879.0,1600927988.99
2325659.0,1600927989.028
2327359.0,1600927989.068
2328497.0,1600927989.109
2330493.0,1600927989.149
2332163.0,1600927989.19
2333800.0,1600927989.23
2335983.0,1600927989.269
2337805.0,1600927989.31
2339567.0,1600927989.349
2341469.0,1600927989.389
2343418.0,1600927989.429
2345346.0,1600927989.47
2349233.0,1600927989.549
2347213.0,1600927989.509
2351114.0,1600927989.591
2353058.0,1600927989.63
2353202.0,1600927989.67
2350870.0,1600927989.789
2351146.0,1600927989.748
2352416.0,1600927989.709
2350679.0,1600927989.83
2351681.0,1600927989.869
2352840.0,1600927989.91
2353701.0,1600927989.951
2354651.0,1600927989.991
2355720.0,1600927990.03
2356656.0,1600927990.069
2357795.0,1600927990.109
2358562.0,1600927990.149
2359972.0,1600927990.191
2360985.0,1600927990.229
2362535.0,1600927990.27
2364316.0,1600927990.311
2365641.0,1600927990.35
2366723.0,1600927990.389
2368374.0,1600927990.43
2369718.0,1600927990.469
2371664.0,1600927990.509
2372982.0,1600927990.551
2372779.0,1600927990.59
2371005.0,1600927990.63
2368968.0,1600927990.671
2367025.0,1600927990.711
2365418.0,1600927990.749
2364210.0,1600927990.791
2364353.0,1600927990.829
2364911.0,1600927990.869
2365667.0,1600927990.911
2366069.0,1600927990.95
2366471.0,1600927990.991
2367283.0,1600927991.031
2368196.0,1600927991.071
2369332.0,1600927991.109
2370720.0,1600927991.15
2372486.0,1600927991.19
2374169.0,1600927991.23
2375893.0,1600927991.271
2377667.0,1600927991.31
2379581.0,1600927991.351
2381636.0,1600927991.393
2383119.0,1600927991.432
2383487.0,1600927991.468
2382189.0,1600927991.509
2380321.0,1600927991.548
2378908.0,1600927991.59
2378321.0,1600927991.63
2378331.0,1600927991.669
2379028.0,1600927991.709
2379877.0,1600927991.751
2380861.0,1600927991.791
2381709.0,1600927991.83
2382642.0,1600927991.871
2383628.0,1600927991.911
2384611.0,1600927991.951
2386227.0,1600927991.993
2388256.0,1600927992.029
2389256.0,1600927992.07
2390996.0,1600927992.111
2392445.0,1600927992.15
2393258.0,1600927992.191
2394726.0,1600927992.232
2395094.0,1600927992.271
2392830.0,1600927992.311
2389107.0,1600927992.35
2385833.0,1600927992.39
2383240.0,1600927992.43
2381466.0,1600927992.471
2381017.0,1600927992.551
2381150.0,1600927992.51
2380502.0,1600927992.593
2380229.0,1600927992.631
2379503.0,1600927992.711
2379854.0,1600927992.671
2379788.0,1600927992.75
2381219.0,1600927992.791
2382239.0,1600927992.831
2383388.0,1600927992.871
2384485.0,1600927992.911
2385098.0,1600927992.952
2386626.0,1600927992.992
2387924.0,1600927993.032
2388874.0,1600927993.071
2385581.0,1600927993.11
2380079.0,1600927993.15
2373615.0,1600927993.192
2368288.0,1600927993.231
2365192.0,1600927993.271
2363007.0,1600927993.312
2362385.0,1600927993.352
2362387.0,1600927993.391
2361963.0,1600927993.431
2361645.0,1600927993.47
2361848.0,1600927993.511
2362882.0,1600927993.552
2363826.0,1600927993.592
2364075.0,1600927993.631
2365344.0,1600927993.673
2367294.0,1600927993.712
2368724.0,1600927993.75
2370649.0,1600927993.792
2372623.0,1600927993.831
2374359.0,1600927993.871
2372228.0,1600927993.912
2365769.0,1600927993.951
2358254.0,1600927993.99
2352536.0,1600927994.03
2348560.0,1600927994.07
2345076.0,1600927994.11
2343097.0,1600927994.151
2342001.0,1600927994.191
2340574.0,1600927994.231
2339205.0,1600927994.272
2338255.0,1600927994.311
2337785.0,1600927994.352
2338168.0,1600927994.394
2339169.0,1600927994.432
2340222.0,1600927994.472
2341630.0,1600927994.511
2343293.0,1600927994.551
2344755.0,1600927994.592
2346606.0,1600927994.632
2348372.0,1600927994.671
2348249.0,1600927994.712
2341431.0,1600927994.753
2332469.0,1600927994.793
2324808.0,1600927994.832
2319416.0,1600927994.872
2315345.0,1600927994.911
2313283.0,1600927994.951
2312253.0,1600927994.993
2310881.0,1600927995.032
2309139.0,1600927995.072
2307804.0,1600927995.113
2306869.0,1600927995.152
2307002.0,1600927995.193
2307381.0,1600927995.232
2308598.0,1600927995.271
2309389.0,1600927995.311
2310334.0,1600927995.353
2311000.0,1600927995.393
2311891.0,1600927995.432
2313035.0,1600927995.474
2309220.0,1600927995.513
2298343.0,1600927995.551
2285705.0,1600927995.593
2275629.0,1600927995.631
2267741.0,1600927995.672
2261510.0,1600927995.713
2257803.0,1600927995.752
2256713.0,1600927995.793
2256314.0,1600927995.834
2256429.0,1600927995.873
2257318.0,1600927995.911
2258514.0,1600927995.952
2260139.0,1600927995.992
2263004.0,1600927996.032
2266094.0,1600927996.073
2269454.0,1600927996.112
2272308.0,1600927996.153
2274668.0,1600927996.195
2276374.0,1600927996.233
2278084.0,1600927996.271
2278073.0,1600927996.313
2268382.0,1600927996.352
2254420.0,1600927996.393
2244172.0,1600927996.433
2236511.0,1600927996.473
2229506.0,1600927996.513
2224066.0,1600927996.554
2221370.0,1600927996.594
2219431.0,1600927996.633
2216769.0,1600927996.672
2214690.0,1600927996.712
2213988.0,1600927996.752
2214119.0,1600927996.794
2215109.0,1600927996.832
2216493.0,1600927996.873
2217305.0,1600927996.914
2219162.0,1600927996.953
2221424.0,1600927996.994
2223014.0,1600927997.033
2225298.0,1600927997.072
2227877.0,1600927997.112
2230698.0,1600927997.153
2230035.0,1600927997.193
2219328.0,1600927997.233
2205981.0,1600927997.274
2195805.0,1600927997.313
2188582.0,1600927997.352
2182772.0,1600927997.394
2179316.0,1600927997.432
2178064.0,1600927997.472
2177603.0,1600927997.514
2176812.0,1600927997.553
2176747.0,1600927997.594
2177082.0,1600927997.64
2178408.0,1600927997.679
2180319.0,1600927997.72
2182976.0,1600927997.761
2185582.0,1600927997.8
2188176.0,1600927997.84
2191711.0,1600927997.881
2195322.0,1600927997.92
2199128.0,1600927997.96
2202730.0,1600927998.002
2206623.0,1600927998.04
2210612.0,1600927998.08
2211504.0,1600927998.121
2204281.0,1600927998.157
2194336.0,1600927998.198
2186573.0,1600927998.239
2181370.0,1600927998.278
2177042.0,1600927998.318
2175165.0,1600927998.36
2174044.0,1600927998.399
2172971.0,1600927998.439
2171891.0,1600927998.478
2171125.0,1600927998.517
2170921.0,1600927998.558
2171757.0,1600927998.6
2173403.0,1600927998.638
2175247.0,1600927998.678
2177773.0,1600927998.72
2180373.0,1600927998.759
2183339.0,1600927998.8
2186445.0,1600927998.838
2189702.0,1600927998.878
2192588.0,1600927998.918
2195939.0,1600927998.959
2198407.0,1600927998.999
2195429.0,1600927999.039
2188071.0,1600927999.08
2181965.0,1600927999.116
2178269.0,1600927999.156
2175035.0,1600927999.199
2173397.0,1600927999.238
2174718.0,1600927999.278
2176588.0,1600927999.319
2178558.0,1600927999.358
2180544.0,1600927999.399
2181278.0,1600927999.44
2182548.0,1600927999.479
2185563.0,1600927999.519
2189629.0,1600927999.56
2193611.0,1600927999.6
2197864.0,1600927999.638
2202325.0,1600927999.679
2206460.0,1600927999.718
2210100.0,1600927999.759
2213741.0,1600927999.8
2217468.0,1600927999.839
2221929.0,1600927999.879
2226575.0,1600927999.921
2227428.0,1600927999.96
2225183.0,1600927999.999
2222526.0,1600928000.039
2221807.0,1600928000.078
2221872.0,1600928000.119
2222226.0,1600928000.16
2223792.0,1600928000.2
2225921.0,1600928000.239
2228177.0,1600928000.281
2230308.0,1600928000.32
2232076.0,1600928000.358
2234641.0,1600928000.4
2237098.0,1600928000.439
2239976.0,1600928000.479
2243225.0,1600928000.52
2246111.0,1600928000.559
2248690.0,1600928000.6
2251267.0,1600928000.641
2254159.0,1600928000.68
2256794.0,1600928000.718
2259748.0,1600928000.759
2262210.0,1600928000.799
2264432.0,1600928000.839
2264842.0,1600928000.88
2261635.0,1600928000.919
2257470.0,1600928000.96
2252706.0,1600928001.002
2248311.0,1600928001.04
2245979.0,1600928001.078
2246821.0,1600928001.12
2247829.0,1600928001.159
2247922.0,1600928001.2
2248614.0,1600928001.24
2250365.0,1600928001.28
2252556.0,1600928001.32
2255713.0,1600928001.361
2258667.0,1600928001.399
2261514.0,1600928001.439
2265500.0,1600928001.48
2269686.0,1600928001.519
2273155.0,1600928001.56
2276762.0,1600928001.601
2280328.0,1600928001.64
2283407.0,1600928001.68
2286285.0,1600928001.719
2289216.0,1600928001.759
2290950.0,1600928001.8
2289878.0,1600928001.84
2286994.0,1600928001.879
2285130.0,1600928001.919
2285264.0,1600928001.96
2285792.0,1600928002.0
2287335.0,1600928002.04
2289606.0,1600928002.081
2291548.0,1600928002.12
2293052.0,1600928002.161
2294564.0,1600928002.203
2295736.0,1600928002.239
2297551.0,1600928002.279
2299758.0,1600928002.32
2302058.0,1600928002.36
2304591.0,1600928002.401
2306892.0,1600928002.441
2308908.0,1600928002.481
2311563.0,1600928002.521
2313829.0,1600928002.56
2316186.0,1600928002.6
2318890.0,1600928002.639
2321197.0,1600928002.681
2322549.0,1600928002.72
2321132.0,1600928002.76
2318760.0,1600928002.802
2316734.0,1600928002.841
2315400.0,1600928002.881
2315080.0,1600928002.92
2315926.0,1600928002.959
2317364.0,1600928003.0
2318443.0,1600928003.041
2319819.0,1600928003.08
2320152.0,1600928003.121
2321116.0,1600928003.162
2321742.0,1600928003.202
2322605.0,1600928003.241
2323291.0,1600928003.28
2325543.0,1600928003.36
2324166.0,1600928003.32
2327013.0,1600928003.402
2328369.0,1600928003.441
2329286.0,1600928003.481
2330554.0,1600928003.522
2331834.0,1600928003.561
2331738.0,1600928003.6
2328849.0,1600928003.641
2324669.0,1600928003.68
2321467.0,1600928003.72
2319609.0,1600928003.761
2318795.0,1600928003.801
2319152.0,1600928003.841
2321057.0,1600928003.882
2322019.0,1600928003.921
2324026.0,1600928003.96
2325517.0,1600928004.002
2326622.0,1600928004.04
2328199.0,1600928004.08
2329065.0,1600928004.122
2330045.0,1600928004.161
2331348.0,1600928004.202
2335679.0,1600928004.279
2333648.0,1600928004.24
2337774.0,1600928004.319
2339703.0,1600928004.361
2341184.0,1600928004.401
2341897.0,1600928004.481
2342644.0,1600928004.44
2338434.0,1600928004.52
2334995.0,1600928004.56
2332844.0,1600928004.602
2331585.0,1600928004.641
2331337.0,1600928004.681
2331240.0,1600928004.722
2331072.0,1600928004.762
2330652.0,1600928004.803
2330963.0,1600928004.841
2331420.0,1600928004.88
2332436.0,1600928004.921
2333914.0,1600928004.962
2335936.0,1600928005.002
2337996.0,1600928005.041
2338984.0,1600928005.083
2340272.0,1600928005.122
2341482.0,1600928005.162
2343843.0,1600928005.202
2345869.0,1600928005.24
2346994.0,1600928005.281
2342888.0,1600928005.322
2335144.0,1600928005.361
2326983.0,1600928005.402
2321148.0,1600928005.443
2316219.0,1600928005.482
2312600.0,1600928005.52
2310736.0,1600928005.562
2309204.0,1600928005.602
2306993.0,1600928005.641
2304793.0,1600928005.682
2302909.0,1600928005.722
2301896.0,1600928005.762
2301088.0,1600928005.804
2300646.0,1600928005.842
2301021.0,1600928005.88
2301912.0,1600928005.922
2303447.0,1600928005.961
2305140.0,1600928006.002
2305455.0,1600928006.043
2305713.0,1600928006.082
2307370.0,1600928006.122
2307564.0,1600928006.163
2303801.0,1600928006.203
2299830.0,1600928006.241
2297409.0,1600928006.282
2296998.0,1600928006.321
2298823.0,1600928006.362
2300357.0,1600928006.404
2300625.0,1600928006.442
2300666.0,1600928006.482
2302343.0,1600928006.561
2301285.0,1600928006.524
2303911.0,1600928006.602
2305817.0,1600928006.642
2307613.0,1600928006.682
2309230.0,1600928006.722
2311213.0,1600928006.763
2313496.0,1600928006.803
2316297.0,1600928006.84
2317860.0,1600928006.882
2294966.0,1600928007.003
2313933.0,1600928006.921
2304208.0,1600928006.961
2288877.0,1600928007.041
2285050.0,1600928007.082
2281752.0,1600928007.123
2280539.0,1600928007.162
2279478.0,1600928007.203
2278445.0,1600928007.244
2276895.0,1600928007.283
2276033.0,1600928007.321
2276409.0,1600928007.363
2276595.0,1600928007.403
2277442.0,1600928007.442
2278737.0,1600928007.483
2280146.0,1600928007.523
2281751.0,1600928007.563
2283402.0,1600928007.605
2284902.0,1600928007.641
2287255.0,1600928007.682
2288329.0,1600928007.723
2281853.0,1600928007.762
2270569.0,1600928007.803
2260552.0,1600928007.844
2253166.0,1600928007.883
2246597.0,1600928007.923
2241883.0,1600928007.964
2239066.0,1600928008.002
2236936.0,1600928008.042
2233727.0,1600928008.083
2230357.0,1600928008.122
2227921.0,1600928008.163
2226645.0,1600928008.204
2226198.0,1600928008.243
2226151.0,1600928008.283
2226992.0,1600928008.323
2226913.0,1600928008.362
2227161.0,1600928008.403
2226863.0,1600928008.444
2226973.0,1600928008.483
2226805.0,1600928008.523
2227279.0,1600928008.564
2225355.0,1600928008.604
2218175.0,1600928008.642
2209923.0,1600928008.722
2213865.0,1600928008.683
2204990.0,1600928008.763
2200650.0,1600928008.804
2198395.0,1600928008.843
2198096.0,1600928008.883
2197548.0,1600928008.925
2196544.0,1600928008.964
2196308.0,1600928009.003
2196235.0,1600928009.043
2196595.0,1600928009.082
2197625.0,1600928009.123
2198416.0,1600928009.164
2198899.0,1600928009.204
2200360.0,1600928009.243
2202811.0,1600928009.285
2205911.0,1600928009.324
2210609.0,1600928009.361
2215541.0,1600928009.403
2219605.0,1600928009.442
2222209.0,1600928009.482
2197360.0,1600928009.604
2190075.0,1600928009.64
2207830.0,1600928009.563
2218822.0,1600928009.523
2185032.0,1600928009.679
2180008.0,1600928009.719
2177659.0,1600928009.76
2176780.0,1600928009.8
2175639.0,1600928009.84
2175029.0,1600928009.881
2174901.0,1600928009.92
2175341.0,1600928009.96
2176724.0,1600928010.002
2178580.0,1600928010.04
2180118.0,1600928010.08
2182858.0,1600928010.121
2184856.0,1600928010.16
2187590.0,1600928010.201
2190201.0,1600928010.239
2193245.0,1600928010.278
2195706.0,1600928010.318
2198222.0,1600928010.359
2200033.0,1600928010.399
2197684.0,1600928010.439
2189464.0,1600928010.48
2181348.0,1600928010.519
2175398.0,1600928010.558
2171253.0,1600928010.6
2166996.0,1600928010.638
2164920.0,1600928010.678
2165141.0,1600928010.72
2165646.0,1600928010.759
2164738.0,1600928010.8
2164173.0,1600928010.84
2164674.0,1600928010.88
2167328.0,1600928010.918
2172480.0,1600928010.959
2176999.0,1600928010.999
2180912.0,1600928011.039
2185871.0,1600928011.08
2192268.0,1600928011.119
2196102.0,1600928011.159
2199314.0,1600928011.201
2202935.0,1600928011.24
2206408.0,1600928011.278
2208924.0,1600928011.319
2205612.0,1600928011.359
2199779.0,1600928011.4
2194879.0,1600928011.44
2190933.0,1600928011.479
2188972.0,1600928011.52
2188192.0,1600928011.561
2188803.0,1600928011.599
2190083.0,1600928011.68
2190988.0,1600928011.719
2189910.0,1600928011.638
2192908.0,1600928011.759
2195042.0,1600928011.801
2197422.0,1600928011.84
2200163.0,1600928011.88
2205919.0,1600928011.96
2203176.0,1600928011.921
2209297.0,1600928012.001
2212810.0,1600928012.039
2215553.0,1600928012.079
2218792.0,1600928012.118
2222637.0,1600928012.16
2225780.0,1600928012.199
2228282.0,1600928012.239
2224614.0,1600928012.28
2217455.0,1600928012.32
2211709.0,1600928012.36
2208411.0,1600928012.402
2206347.0,1600928012.439
2205650.0,1600928012.479
2205836.0,1600928012.52
2206856.0,1600928012.559
2207285.0,1600928012.6
2207913.0,1600928012.641
2209121.0,1600928012.68
2210538.0,1600928012.72
2212594.0,1600928012.762
2214101.0,1600928012.799
2215329.0,1600928012.839
2216480.0,1600928012.88
2217847.0,1600928012.919
2219079.0,1600928012.96
2221167.0,1600928013.04
2220320.0,1600928013.002
2221835.0,1600928013.08
2222621.0,1600928013.122
2223924.0,1600928013.159
2220858.0,1600928013.2
2212351.0,1600928013.24
2205433.0,1600928013.28
2200827.0,1600928013.32
2197815.0,1600928013.361
2196956.0,1600928013.401
2197075.0,1600928013.441
2198128.0,1600928013.48
2197641.0,1600928013.559
2198811.0,1600928013.519
2196034.0,1600928013.601
2194955.0,1600928013.64
2193894.0,1600928013.68
2193010.0,1600928013.721
2193152.0,1600928013.761
2192475.0,1600928013.802
2193430.0,1600928013.84
2193782.0,1600928013.879
2194528.0,1600928013.92
2198897.0,1600928014.001
2195849.0,1600928013.961
2202753.0,1600928014.04
2206153.0,1600928014.082
2203788.0,1600928014.121
2191529.0,1600928014.201
2197014.0,1600928014.161
2185291.0,1600928014.28
2187847.0,1600928014.24
2183398.0,1600928014.321
2182623.0,1600928014.36
2184174.0,1600928014.442
2183233.0,1600928014.401
2187005.0,1600928014.481
2188238.0,1600928014.521
2190605.0,1600928014.56
2200466.0,1600928014.64
2194940.0,1600928014.6
2204623.0,1600928014.681
2208827.0,1600928014.72
2212882.0,1600928014.761
2216581.0,1600928014.803
2220247.0,1600928014.841
2226668.0,1600928014.921
2223216.0,1600928014.881
2231978.0,1600928015.001
2230070.0,1600928014.96
2229496.0,1600928015.041
2224062.0,1600928015.081
2219780.0,1600928015.121
2217815.0,1600928015.162
2216826.0,1600928015.202
2217586.0,1600928015.24
2219340.0,1600928015.281
2223416.0,1600928015.403
2224221.0,1600928015.441
2222759.0,1600928015.361
2224313.0,1600928015.482
2221323.0,1600928015.32
2224852.0,1600928015.521
2225226.0,1600928015.56
2226357.0,1600928015.601
2227362.0,1600928015.642
2228222.0,1600928015.681
2229204.0,1600928015.721
2230684.0,1600928015.762
2232559.0,1600928015.802
2232633.0,1600928015.842
2228330.0,1600928015.881
2221839.0,1600928015.92
2217478.0,1600928015.961
2213889.0,1600928016.003
2211555.0,1600928016.081
2212033.0,1600928016.041
2211254.0,1600928016.162
2211547.0,1600928016.123
2211083.0,1600928016.203
2210350.0,1600928016.241
2210714.0,1600928016.28
2212531.0,1600928016.321
2215416.0,1600928016.362
2218242.0,1600928016.402
2221638.0,1600928016.442
2225131.0,1600928016.483
2229182.0,1600928016.522
2232853.0,1600928016.56
2236802.0,1600928016.602
2237494.0,1600928016.681
2239770.0,1600928016.641
2231792.0,1600928016.722
2227106.0,1600928016.762
2224209.0,1600928016.803
2222681.0,1600928016.843
2222044.0,1600928016.882
2223913.0,1600928016.962
2222730.0,1600928016.92
2224476.0,1600928017.002
2225101.0,1600928017.041
2226143.0,1600928017.082
2227795.0,1600928017.122
2229944.0,1600928017.162
2232322.0,1600928017.204
2234948.0,1600928017.242
2237657.0,1600928017.283
2240560.0,1600928017.322
2242960.0,1600928017.361
2245491.0,1600928017.402
2248356.0,1600928017.443
2247195.0,1600928017.482
2241847.0,1600928017.522
2236328.0,1600928017.563
2233032.0,1600928017.603
2230524.0,1600928017.641
2229542.0,1600928017.682
2230128.0,1600928017.721
2230699.0,1600928017.762
2231031.0,1600928017.804
2231056.0,1600928017.842
2230864.0,1600928017.882
2230621.0,1600928017.924
2231534.0,1600928017.963
2232702.0,1600928018.002
2234785.0,1600928018.042
2236922.0,1600928018.082
2239269.0,1600928018.122
2240662.0,1600928018.163
2242330.0,1600928018.203
2244258.0,1600928018.243
2246435.0,1600928018.284
2243183.0,1600928018.321
2236606.0,1600928018.362
2233300.0,1600928018.404
2232864.0,1600928018.442
2231849.0,1600928018.482
2231858.0,1600928018.524
2233157.0,1600928018.563
2234455.0,1600928018.604
2235450.0,1600928018.642
2235495.0,1600928018.682
2236243.0,1600928018.722
2237320.0,1600928018.763
2238618.0,1600928018.803
2240391.0,1600928018.843
2242110.0,1600928018.884
2244672.0,1600928018.923
2247081.0,1600928018.963
2249855.0,1600928019.003
2252832.0,1600928019.042
2255691.0,1600928019.082
2258592.0,1600928019.123
2257444.0,1600928019.162
2251922.0,1600928019.203
2246121.0,1600928019.244
2242120.0,1600928019.283
2239918.0,1600928019.324
2238791.0,1600928019.363
2239219.0,1600928019.403
2239934.0,1600928019.442
2240620.0,1600928019.483
2241155.0,1600928019.523
2242132.0,1600928019.563
2243398.0,1600928019.602
2245720.0,1600928019.641
2247684.0,1600928019.682
2249999.0,1600928019.723
2252719.0,1600928019.762
2255483.0,1600928019.803
2258063.0,1600928019.843
2260774.0,1600928019.882
2263773.0,1600928019.923
2265982.0,1600928019.964
2266706.0,1600928020.004
2261803.0,1600928020.044
2253746.0,1600928020.085
2247461.0,1600928020.122
2239609.0,1600928020.204
2238028.0,1600928020.243
2243280.0,1600928020.162
2237494.0,1600928020.283
2236416.0,1600928020.324
2233686.0,1600928020.364
2233672.0,1600928020.405
2239181.0,1600928020.443
2242680.0,1600928020.482
2244875.0,1600928020.523
2247893.0,1600928020.564
2251166.0,1600928020.604
2255373.0,1600928020.643
2260981.0,1600928020.685
2264945.0,1600928020.724
2267912.0,1600928020.764
2270777.0,1600928020.804
2273287.0,1600928020.843
2275553.0,1600928020.883
2272639.0,1600928020.924
2265302.0,1600928020.963
2259081.0,1600928021.004
2254842.0,1600928021.045
2252266.0,1600928021.084
2251217.0,1600928021.124
2251338.0,1600928021.163
2252028.0,1600928021.203
2251728.0,1600928021.243
2251379.0,1600928021.284
2251628.0,1600928021.323
2252395.0,1600928021.364
2254397.0,1600928021.406
2256448.0,1600928021.444
2258791.0,1600928021.483
2261124.0,1600928021.524
2263655.0,1600928021.563
2266533.0,1600928021.604
2268945.0,1600928021.651
2271658.0,1600928021.69
2274218.0,1600928021.73
2277022.0,1600928021.771
2277657.0,1600928021.811
2271941.0,1600928021.85
2262705.0,1600928021.891
2255691.0,1600928021.93
2251287.0,1600928021.97
2247678.0,1600928022.012
2245971.0,1600928022.05
2244640.0,1600928022.09
2243480.0,1600928022.129
2241685.0,1600928022.168
2240078.0,1600928022.209
2238912.0,1600928022.249
2238019.0,1600928022.289
2237865.0,1600928022.329
2238262.0,1600928022.37
2238652.0,1600928022.41
2238804.0,1600928022.45
2238618.0,1600928022.489
2239750.0,1600928022.528
2241499.0,1600928022.569
2243417.0,1600928022.611
2244886.0,1600928022.649
2246750.0,1600928022.689
2239437.0,1600928022.77
2219702.0,1600928022.849
2228781.0,1600928022.811
2246810.0,1600928022.731
2213791.0,1600928022.888
2208916.0,1600928022.97
2210597.0,1600928022.929
2209718.0,1600928023.01
2210226.0,1600928023.049
2209602.0,1600928023.091
2208938.0,1600928023.13
2208781.0,1600928023.17
2209985.0,1600928023.21
2211362.0,1600928023.249
2213269.0,1600928023.289
2215483.0,1600928023.33
2217945.0,1600928023.37
2221077.0,1600928023.411
2223882.0,1600928023.451
2226444.0,1600928023.49
2229264.0,1600928023.528
2231764.0,1600928023.57
2234833.0,1600928023.61
2237645.0,1600928023.649
2235176.0,1600928023.691
2224930.0,1600928023.73
2214472.0,1600928023.77
2207361.0,1600928023.812
2202798.0,1600928023.85
2199792.0,1600928023.889
2198493.0,1600928023.93
2198209.0,1600928023.969
2197827.0,1600928024.01
2197325.0,1600928024.051
2197936.0,1600928024.13
2197191.0,1600928024.09
2199306.0,1600928024.172
2201592.0,1600928024.209
2203691.0,1600928024.249
2206618.0,1600928024.29
2209291.0,1600928024.33
2212145.0,1600928024.37
2214328.0,1600928024.412
2216707.0,1600928024.45
2219918.0,1600928024.491
2223296.0,1600928024.53
2226549.0,1600928024.569
2230724.0,1600928024.61
2218719.0,1600928024.69
2228685.0,1600928024.651
2200651.0,1600928024.769
2207487.0,1600928024.728
2193888.0,1600928024.849
2196494.0,1600928024.809
2193824.0,1600928024.89
2194307.0,1600928024.929
2195276.0,1600928024.969
2195717.0,1600928025.011
2195950.0,1600928025.05
2197431.0,1600928025.09
2199151.0,1600928025.131
2201631.0,1600928025.17
2204628.0,1600928025.211
2208301.0,1600928025.252
2211561.0,1600928025.291
2218297.0,1600928025.371
2215071.0,1600928025.329
2222125.0,1600928025.411
2225599.0,1600928025.45
2229535.0,1600928025.492
2233576.0,1600928025.531
2237296.0,1600928025.571
2237668.0,1600928025.613
2229360.0,1600928025.649
2219061.0,1600928025.69
2211147.0,1600928025.731
2206553.0,1600928025.77
2204221.0,1600928025.811
2203063.0,1600928025.852
2204088.0,1600928025.891
2204857.0,1600928025.931
2204988.0,1600928025.972
2204979.0,1600928026.01
2206214.0,1600928026.05
2208258.0,1600928026.091
2210259.0,1600928026.13
2213345.0,1600928026.171
2216357.0,1600928026.213
2219400.0,1600928026.251
2222334.0,1600928026.291
2225244.0,1600928026.333
2228173.0,1600928026.37
2231204.0,1600928026.411
2234608.0,1600928026.451
2238119.0,1600928026.491
2241590.0,1600928026.531
2244155.0,1600928026.572
2239150.0,1600928026.612
2228286.0,1600928026.652
2218679.0,1600928026.693
2213580.0,1600928026.73
2210372.0,1600928026.77
2209368.0,1600928026.812
2209934.0,1600928026.851
2210737.0,1600928026.891
2211001.0,1600928026.932
2211380.0,1600928026.971
2212157.0,1600928027.012
2213925.0,1600928027.053
2216928.0,1600928027.09
2220538.0,1600928027.13
2223639.0,1600928027.172
2226662.0,1600928027.212
2230173.0,1600928027.251
2233541.0,1600928027.29
2237263.0,1600928027.33
2241280.0,1600928027.371
2245684.0,1600928027.412
2249569.0,1600928027.45
2253378.0,1600928027.491
2255704.0,1600928027.532
2250295.0,1600928027.571
2238978.0,1600928027.612
2229341.0,1600928027.653
2223097.0,1600928027.692
2220298.0,1600928027.732
2218457.0,1600928027.771
2219305.0,1600928027.811
2220444.0,1600928027.851
2220901.0,1600928027.892
2220978.0,1600928027.931
2221939.0,1600928027.972
2223555.0,1600928028.014
2225160.0,1600928028.052
2227620.0,1600928028.092
2230216.0,1600928028.132
2232873.0,1600928028.171
2235889.0,1600928028.212
2239018.0,1600928028.252
2242159.0,1600928028.292
2245356.0,1600928028.332
2248431.0,1600928028.373
2251732.0,1600928028.413
2255482.0,1600928028.451
2255389.0,1600928028.492
2245906.0,1600928028.531
2232987.0,1600928028.571
2218153.0,1600928028.652
2223545.0,1600928028.613
2213922.0,1600928028.734
2215072.0,1600928028.692
2214362.0,1600928028.773
2214137.0,1600928028.812
2213259.0,1600928028.852
2212497.0,1600928028.891
2212750.0,1600928028.932
2213801.0,1600928028.973
2215685.0,1600928029.013
2218552.0,1600928029.052
2224192.0,1600928029.133
2221094.0,1600928029.094
2227582.0,1600928029.171
2230112.0,1600928029.213
2233252.0,1600928029.252
2236365.0,1600928029.292
2239482.0,1600928029.333
2242543.0,1600928029.372
2244536.0,1600928029.413
2237424.0,1600928029.454
2221940.0,1600928029.491
2208136.0,1600928029.531
2199245.0,1600928029.573
2192562.0,1600928029.613
2187734.0,1600928029.652
2185967.0,1600928029.693
2184327.0,1600928029.733
2182011.0,1600928029.773
2179785.0,1600928029.815
2177697.0,1600928029.851
2176891.0,1600928029.892
2178250.0,1600928029.932
2180404.0,1600928029.971
2183942.0,1600928030.012
2187157.0,1600928030.053
2189188.0,1600928030.092
2189967.0,1600928030.132
2191996.0,1600928030.174
2194378.0,1600928030.214
2196787.0,1600928030.253
2199331.0,1600928030.293
2203042.0,1600928030.332
2206105.0,1600928030.372
2198758.0,1600928030.414
2183023.0,1600928030.453
2169931.0,1600928030.493
2161429.0,1600928030.534
2154948.0,1600928030.573
2149542.0,1600928030.612
2147542.0,1600928030.653
2146507.0,1600928030.692
2144272.0,1600928030.732
2142634.0,1600928030.774
2141783.0,1600928030.814
2141711.0,1600928030.853
2142878.0,1600928030.894
2144897.0,1600928030.934
2146516.0,1600928030.972
2148960.0,1600928031.014
2151853.0,1600928031.052
2154942.0,1600928031.093
2157933.0,1600928031.134
2161217.0,1600928031.173
2164639.0,1600928031.214
2168192.0,1600928031.255
2171907.0,1600928031.294
2174682.0,1600928031.332
2168100.0,1600928031.373
2153844.0,1600928031.413
2140851.0,1600928031.453
2132195.0,1600928031.494
2126543.0,1600928031.533
2123877.0,1600928031.574
2123258.0,1600928031.616
2123125.0,1600928031.652
2122282.0,1600928031.692
2120420.0,1600928031.734
2120054.0,1600928031.773
2121346.0,1600928031.854
2120168.0,1600928031.814
2125456.0,1600928031.934
2123335.0,1600928031.894
2130950.0,1600928032.013
2128174.0,1600928031.975
2134048.0,1600928032.053
2137679.0,1600928032.094
2141171.0,1600928032.133
2144642.0,1600928032.173
2148676.0,1600928032.215
2152669.0,1600928032.254
2156413.0,1600928032.294
2152783.0,1600928032.335
2140501.0,1600928032.372
2128360.0,1600928032.413
2120368.0,1600928032.454
2114913.0,1600928032.493
2111347.0,1600928032.533
2109991.0,1600928032.574
2109789.0,1600928032.614
2109608.0,1600928032.654
2108726.0,1600928032.695
2108755.0,1600928032.734
2110231.0,1600928032.774
2113145.0,1600928032.816
2115237.0,1600928032.853
2118466.0,1600928032.893
2121952.0,1600928032.934
2124811.0,1600928032.973
2128491.0,1600928033.014
2135220.0,1600928033.094
2131833.0,1600928033.055
2139203.0,1600928033.135
2142828.0,1600928033.176
2147056.0,1600928033.214
2150519.0,1600928033.253
2147305.0,1600928033.294
2129365.0,1600928033.374
2138018.0,1600928033.334
2122732.0,1600928033.416
2118899.0,1600928033.455
2116105.0,1600928033.495
2115762.0,1600928033.534
2116380.0,1600928033.573
2116776.0,1600928033.614
2116844.0,1600928033.648
2118352.0,1600928033.687
2120500.0,1600928033.727
2122661.0,1600928033.768
2125339.0,1600928033.808
2128365.0,1600928033.847
2131546.0,1600928033.888
2134786.0,1600928033.927
2138086.0,1600928033.967
2141333.0,1600928034.009
2144581.0,1600928034.047
2148574.0,1600928034.087
2152537.0,1600928034.129
2156275.0,1600928034.168
2160242.0,1600928034.209
2162696.0,1600928034.247
2157757.0,1600928034.287
2150217.0,1600928034.327
2144561.0,1600928034.368
2140936.0,1600928034.408
2138976.0,1600928034.448
2137398.0,1600928034.489
2137926.0,1600928034.528
2139102.0,1600928034.566
2139965.0,1600928034.608
2139734.0,1600928034.647
2140730.0,1600928034.687
2142783.0,1600928034.729
2145615.0,1600928034.768
2148263.0,1600928034.809
2151108.0,1600928034.849
2154442.0,1600928034.888
2158054.0,1600928034.927
2161317.0,1600928034.968
2164558.0,1600928035.007
2167399.0,1600928035.047
2170532.0,1600928035.088
2174208.0,1600928035.127
2177331.0,1600928035.168
2180928.0,1600928035.21
2183382.0,1600928035.248
2181183.0,1600928035.289
2175572.0,1600928035.328
2170995.0,1600928035.367
2168706.0,1600928035.408
2167201.0,1600928035.449
2166867.0,1600928035.488
2168302.0,1600928035.528
2169429.0,1600928035.57
2170273.0,1600928035.609
2171528.0,1600928035.647
2172703.0,1600928035.688
2173991.0,1600928035.727
2179526.0,1600928035.81
2177009.0,1600928035.768
2182281.0,1600928035.848
2185576.0,1600928035.888
2188702.0,1600928035.93
2191752.0,1600928035.969
2194906.0,1600928036.008
2197719.0,1600928036.048
2200418.0,1600928036.088
2203476.0,1600928036.128
2208923.0,1600928036.169
2214768.0,1600928036.209
2220273.0,1600928036.249
2221432.0,1600928036.29
2217806.0,1600928036.329
2214402.0,1600928036.367
2212684.0,1600928036.409
2212750.0,1600928036.448
2212387.0,1600928036.488
2213009.0,1600928036.529
2214306.0,1600928036.569
2215701.0,1600928036.61
2216909.0,1600928036.65
2218272.0,1600928036.689
2220735.0,1600928036.727
2223190.0,1600928036.769
2225657.0,1600928036.809
2228559.0,1600928036.848
2231188.0,1600928036.889
2234527.0,1600928036.929
2241419.0,1600928037.011
2238028.0,1600928036.969
2244506.0,1600928037.049
2248036.0,1600928037.088
2255000.0,1600928037.168
2251415.0,1600928037.129
2258510.0,1600928037.209
2260294.0,1600928037.25
2258438.0,1600928037.289
2254504.0,1600928037.329
2251787.0,1600928037.371
2249961.0,1600928037.408
2249431.0,1600928037.448
2249124.0,1600928037.489
2249991.0,1600928037.527
2251704.0,1600928037.568
2252740.0,1600928037.61
2253848.0,1600928037.648
2255202.0,1600928037.688
2257142.0,1600928037.729
2259219.0,1600928037.769
2261582.0,1600928037.81
2264079.0,1600928037.85
2266526.0,1600928037.889
2268450.0,1600928037.93
2272688.0,1600928038.009
2270801.0,1600928037.971
2274677.0,1600928038.048
2275893.0,1600928038.09
2277636.0,1600928038.129
2279957.0,1600928038.169
2282387.0,1600928038.211
2281429.0,1600928038.25
2278401.0,1600928038.29
2273541.0,1600928038.331
2268421.0,1600928038.368
2265152.0,1600928038.409
2264074.0,1600928038.45
2264579.0,1600928038.489
2266571.0,1600928038.529
2268041.0,1600928038.57
2268977.0,1600928038.61
2270068.0,1600928038.65
2271365.0,1600928038.691
2272819.0,1600928038.728
2274445.0,1600928038.769
2276259.0,1600928038.811
2277795.0,1600928038.849
2279760.0,1600928038.889
2281630.0,1600928038.931
2283978.0,1600928038.97
2285717.0,1600928039.011
2287825.0,1600928039.051
2289971.0,1600928039.088
2292882.0,1600928039.129
2295552.0,1600928039.17
2296206.0,1600928039.21
2291470.0,1600928039.25
2284406.0,1600928039.291
2278717.0,1600928039.33
2274853.0,1600928039.37
2271951.0,1600928039.41
2269573.0,1600928039.449
2268532.0,1600928039.489
2268073.0,1600928039.53
2267317.0,1600928039.57
2265913.0,1600928039.611
2265770.0,1600928039.651
2266289.0,1600928039.69
2267059.0,1600928039.731
2267878.0,1600928039.77
2268944.0,1600928039.81
2270518.0,1600928039.849
2271569.0,1600928039.891
2272665.0,1600928039.93
2274033.0,1600928039.97
2275970.0,1600928040.012
2278046.0,1600928040.051
2280226.0,1600928040.088
2280759.0,1600928040.13
2281161.0,1600928040.169
2276337.0,1600928040.21
2266050.0,1600928040.25
2256628.0,1600928040.289
2250896.0,1600928040.33
2248766.0,1600928040.371
2246750.0,1600928040.41
2246044.0,1600928040.45
2244895.0,1600928040.491
2244035.0,1600928040.53
2242195.0,1600928040.571
2241818.0,1600928040.613
2241660.0,1600928040.649
2242087.0,1600928040.689
2243692.0,1600928040.731
2245566.0,1600928040.77
2246505.0,1600928040.811
2247866.0,1600928040.851
2249727.0,1600928040.891
2251048.0,1600928040.931
2252877.0,1600928040.972
2254871.0,1600928041.01
2257196.0,1600928041.05
2259298.0,1600928041.091
2258856.0,1600928041.13
2250864.0,1600928041.17
2240605.0,1600928041.212
2232732.0,1600928041.251
2227805.0,1600928041.291
2222853.0,1600928041.33
2218946.0,1600928041.37
2216954.0,1600928041.411
2215235.0,1600928041.451
2213520.0,1600928041.491
2212041.0,1600928041.531
2211767.0,1600928041.572
2211933.0,1600928041.612
2212565.0,1600928041.65
2215097.0,1600928041.73
2213681.0,1600928041.691
2216666.0,1600928041.77
2218199.0,1600928041.812
2220148.0,1600928041.851
2222372.0,1600928041.891
2224725.0,1600928041.932
2226800.0,1600928041.972
2229373.0,1600928042.01
2232018.0,1600928042.051
2230849.0,1600928042.09
2222719.0,1600928042.131
2212714.0,1600928042.172
2204752.0,1600928042.212
2199703.0,1600928042.251
2195858.0,1600928042.293
2192798.0,1600928042.332
2190974.0,1600928042.37
2189407.0,1600928042.412
2188002.0,1600928042.45
2186544.0,1600928042.491
2185516.0,1600928042.532
2185977.0,1600928042.571
2186572.0,1600928042.612
2187768.0,1600928042.65
2189020.0,1600928042.69
2190560.0,1600928042.73
2192358.0,1600928042.771
2193906.0,1600928042.811
2195716.0,1600928042.851
2198255.0,1600928042.892
2200487.0,1600928042.931
2203745.0,1600928042.971
2207519.0,1600928043.013
2207438.0,1600928043.052
2200181.0,1600928043.092
2190645.0,1600928043.131
2183112.0,1600928043.17
2176214.0,1600928043.211
2170431.0,1600928043.252
2166728.0,1600928043.291
2164961.0,1600928043.332
2162980.0,1600928043.373
2160373.0,1600928043.413
2159062.0,1600928043.45
2158473.0,1600928043.492
2158969.0,1600928043.531
2161743.0,1600928043.613
2160317.0,1600928043.571
2165637.0,1600928043.692
2163769.0,1600928043.652
2167627.0,1600928043.733
2170158.0,1600928043.772
2171950.0,1600928043.811
2177020.0,1600928043.891
2174525.0,1600928043.852
2179440.0,1600928043.931
2182717.0,1600928043.973
2183536.0,1600928044.012
2177549.0,1600928044.052
2168143.0,1600928044.093
2159319.0,1600928044.133
2152522.0,1600928044.171
2146009.0,1600928044.213
2141361.0,1600928044.251
2138956.0,1600928044.291
2137143.0,1600928044.333
2135751.0,1600928044.372
2134465.0,1600928044.413
2134391.0,1600928044.454
2135536.0,1600928044.491
2137130.0,1600928044.531
2138967.0,1600928044.572
2140542.0,1600928044.612
2142959.0,1600928044.652
2145122.0,1600928044.693
2147698.0,1600928044.732
2150990.0,1600928044.773
2153896.0,1600928044.815
2157577.0,1600928044.851
2161271.0,1600928044.891
2164869.0,1600928044.933
2168270.0,1600928044.972
2169014.0,1600928045.013
2164353.0,1600928045.053
2157112.0,1600928045.092
2150841.0,1600928045.133
2146137.0,1600928045.174
2142331.0,1600928045.211
2139457.0,1600928045.251
2139341.0,1600928045.292
2138847.0,1600928045.331
2138643.0,1600928045.371
2138834.0,1600928045.413
2139447.0,1600928045.452
2141297.0,1600928045.492
2143425.0,1600928045.533
2145607.0,1600928045.573
2148674.0,1600928045.614
2151695.0,1600928045.659
2154570.0,1600928045.698
2158047.0,1600928045.738
2161406.0,1600928045.779
2164935.0,1600928045.819
2168575.0,1600928045.858
2171949.0,1600928045.899
2175935.0,1600928045.938
2179994.0,1600928045.978
2181869.0,1600928046.02
2179099.0,1600928046.059
2174390.0,1600928046.099
2170386.0,1600928046.138
2168219.0,1600928046.177
2166387.0,1600928046.218
2164869.0,1600928046.258
2164765.0,1600928046.298
2165894.0,1600928046.338
2167788.0,1600928046.379
2170005.0,1600928046.419
2172056.0,1600928046.457
2175989.0,1600928046.498
2179595.0,1600928046.537
2180848.0,1600928046.577
2183061.0,1600928046.619
2185083.0,1600928046.658
2188259.0,1600928046.698
2191363.0,1600928046.739
2195369.0,1600928046.779
2198895.0,1600928046.818
2202151.0,1600928046.858
2206101.0,1600928046.897
2209631.0,1600928046.938
2211354.0,1600928046.979
2209223.0,1600928047.019
2205763.0,1600928047.058
2202482.0,1600928047.139
2203756.0,1600928047.1
2202356.0,1600928047.177
2204631.0,1600928047.257
2203013.0,1600928047.219
2205909.0,1600928047.298
2206997.0,1600928047.339
2208469.0,1600928047.378
2209873.0,1600928047.419
2212151.0,1600928047.46
2215301.0,1600928047.497
2217930.0,1600928047.537
2220890.0,1600928047.579
2223990.0,1600928047.619
2226877.0,1600928047.658
2229799.0,1600928047.699
2232774.0,1600928047.739
2235691.0,1600928047.777
2238602.0,1600928047.819
2241374.0,1600928047.857
2244485.0,1600928047.897
2244006.0,1600928047.939
2240388.0,1600928047.978
2236979.0,1600928048.019
2234727.0,1600928048.059
2233375.0,1600928048.099
2232541.0,1600928048.139
2232682.0,1600928048.18
2231916.0,1600928048.22
2230533.0,1600928048.257
2230784.0,1600928048.299
2232000.0,1600928048.338
2233648.0,1600928048.378
2236209.0,1600928048.42
2238625.0,1600928048.459
2240917.0,1600928048.499
2243643.0,1600928048.54
2245801.0,1600928048.578
2248385.0,1600928048.619
2251009.0,1600928048.659
2253932.0,1600928048.698
2256779.0,1600928048.739
2259371.0,1600928048.78
2262129.0,1600928048.82
2264219.0,1600928048.859
2261755.0,1600928048.901
2257219.0,1600928048.938
2253209.0,1600928048.978
2250391.0,1600928049.02
2248531.0,1600928049.059
2247267.0,1600928049.099
2247137.0,1600928049.14
2247697.0,1600928049.179
2247949.0,1600928049.22
2247955.0,1600928049.261
2248857.0,1600928049.298
2250042.0,1600928049.338
2251894.0,1600928049.38
2253670.0,1600928049.42
2255660.0,1600928049.459
2257665.0,1600928049.5
2259401.0,1600928049.54
2261500.0,1600928049.58
2263660.0,1600928049.62
2265925.0,1600928049.658
2268413.0,1600928049.699
2270656.0,1600928049.74
2272818.0,1600928049.779
2273590.0,1600928049.82
2270379.0,1600928049.861
2264913.0,1600928049.9
2260836.0,1600928049.94
2257663.0,1600928049.979
2255206.0,1600928050.019
2253436.0,1600928050.059
2253189.0,1600928050.1
2253384.0,1600928050.139
2253167.0,1600928050.18
2253101.0,1600928050.222
2253243.0,1600928050.26
2253735.0,1600928050.3
2255103.0,1600928050.339
2256481.0,1600928050.379
2258139.0,1600928050.419
2259922.0,1600928050.459
2262227.0,1600928050.499
2264157.0,1600928050.539
2266079.0,1600928050.58
2268567.0,1600928050.62
2270750.0,1600928050.66
2273039.0,1600928050.701
2275535.0,1600928050.74
2275973.0,1600928050.78
2271726.0,1600928050.82
2266007.0,1600928050.859
2261421.0,1600928050.899
2258283.0,1600928050.94
2255514.0,1600928050.98
2253623.0,1600928051.021
2253200.0,1600928051.061
2252641.0,1600928051.1
2252377.0,1600928051.141
2251924.0,1600928051.18
2252079.0,1600928051.22
2253304.0,1600928051.259
2254474.0,1600928051.301
2256165.0,1600928051.34
2257797.0,1600928051.38
2259598.0,1600928051.422
2261472.0,1600928051.461
2263481.0,1600928051.499
2265241.0,1600928051.54
2267414.0,1600928051.579
2269520.0,1600928051.62
2271552.0,1600928051.661
2272835.0,1600928051.7
2268562.0,1600928051.74
2261773.0,1600928051.782
2255946.0,1600928051.822
2250939.0,1600928051.859
2247243.0,1600928051.9
2243790.0,1600928051.94
2242183.0,1600928051.98
2241080.0,1600928052.022
2240159.0,1600928052.06
2238654.0,1600928052.101
2237899.0,1600928052.142
2237888.0,1600928052.181
2238699.0,1600928052.22
2239389.0,1600928052.261
2240819.0,1600928052.3
2242136.0,1600928052.34
2243825.0,1600928052.382
2246043.0,1600928052.421
2248013.0,1600928052.461
2249803.0,1600928052.502
2252204.0,1600928052.539
2254017.0,1600928052.58
2257451.0,1600928052.622
2257034.0,1600928052.66
2248035.0,1600928052.7
2238241.0,1600928052.742
2231378.0,1600928052.781
2226781.0,1600928052.822
2223629.0,1600928052.862
2222266.0,1600928052.901
2222033.0,1600928052.942
2221436.0,1600928052.98
2220394.0,1600928053.02
2220135.0,1600928053.06
2221158.0,1600928053.101
2222837.0,1600928053.14
2225426.0,1600928053.18
2227191.0,1600928053.222
2229710.0,1600928053.261
2231197.0,1600928053.301
2233032.0,1600928053.342
2235110.0,1600928053.381
2237636.0,1600928053.42
2240371.0,1600928053.461
2243257.0,1600928053.5
2246263.0,1600928053.541
2248904.0,1600928053.582
2246452.0,1600928053.622
2238619.0,1600928053.661
2230853.0,1600928053.702
2224913.0,1600928053.742
2220951.0,1600928053.78
2217296.0,1600928053.822
2215962.0,1600928053.86
2215276.0,1600928053.901
2214174.0,1600928053.942
2213484.0,1600928053.981
2213148.0,1600928054.022
2213573.0,1600928054.063
2214656.0,1600928054.102
2215877.0,1600928054.14
2216999.0,1600928054.181
2218455.0,1600928054.221
2219956.0,1600928054.261
2222109.0,1600928054.302
2226176.0,1600928054.382
2228527.0,1600928054.424
2223957.0,1600928054.341
2230868.0,1600928054.46
2233496.0,1600928054.542
2233531.0,1600928054.5
2226209.0,1600928054.581
2217359.0,1600928054.622
2210350.0,1600928054.663
2206231.0,1600928054.702
2202854.0,1600928054.742
2202031.0,1600928054.783
2202399.0,1600928054.821
2202818.0,1600928054.861
2201973.0,1600928054.902
2200894.0,1600928054.941
2201397.0,1600928054.981
2202637.0,1600928055.023
2204118.0,1600928055.062
2205436.0,1600928055.102
2207512.0,1600928055.143
2209751.0,1600928055.181
2213125.0,1600928055.222
2215608.0,1600928055.262
2218600.0,1600928055.301
2221480.0,1600928055.342
2223139.0,1600928055.383
2224724.0,1600928055.423
2225742.0,1600928055.46
2220669.0,1600928055.502
2209472.0,1600928055.541
2197545.0,1600928055.581
2188530.0,1600928055.622
2181563.0,1600928055.661
2174312.0,1600928055.701
2169178.0,1600928055.743
2166310.0,1600928055.782
2162894.0,1600928055.823
2158780.0,1600928055.863
2155678.0,1600928055.903
2153940.0,1600928055.943
2153829.0,1600928055.982
2154429.0,1600928056.022
2156865.0,1600928056.061
2159435.0,1600928056.103
2162078.0,1600928056.142
2165093.0,1600928056.182
2169169.0,1600928056.224
2172686.0,1600928056.263
2177351.0,1600928056.303
2181888.0,1600928056.342
2187415.0,1600928056.381
2193060.0,1600928056.422
2192977.0,1600928056.463
2186364.0,1600928056.502
2177708.0,1600928056.543
2171810.0,1600928056.584
2167659.0,1600928056.624
2164386.0,1600928056.661
2162129.0,1600928056.702
2160891.0,1600928056.742
2160965.0,1600928056.782
2162663.0,1600928056.824
2165818.0,1600928056.862
2169632.0,1600928056.903
2173720.0,1600928056.944
2178251.0,1600928056.983
2183337.0,1600928057.022
2188582.0,1600928057.063
2193062.0,1600928057.102
2197328.0,1600928057.142
2201538.0,1600928057.184
2206390.0,1600928057.223
2211177.0,1600928057.263
2216646.0,1600928057.304
2221989.0,1600928057.341
2226863.0,1600928057.382
2229986.0,1600928057.424
2227022.0,1600928057.462
2220982.0,1600928057.503
2216631.0,1600928057.544
2215062.0,1600928057.583
2214584.0,1600928057.624
2215237.0,1600928057.661
2217178.0,1600928057.7
2219089.0,1600928057.74
2220641.0,1600928057.781
2222035.0,1600928057.821
2224048.0,1600928057.86
2226555.0,1600928057.901
2229443.0,1600928057.94
2233084.0,1600928057.98
2236521.0,1600928058.022
2240194.0,1600928058.06
2243867.0,1600928058.1
2247683.0,1600928058.141
2251323.0,1600928058.18
2254933.0,1600928058.221
2258477.0,1600928058.262
2262001.0,1600928058.301
2265359.0,1600928058.341
2265578.0,1600928058.382
2261420.0,1600928058.422
2256129.0,1600928058.461
2253267.0,1600928058.502
2252604.0,1600928058.541
2252495.0,1600928058.581
2254104.0,1600928058.623
2255780.0,1600928058.661
2257394.0,1600928058.702
2258780.0,1600928058.743
2260504.0,1600928058.782
2261931.0,1600928058.822
2264472.0,1600928058.863
2267101.0,1600928058.902
2270117.0,1600928058.942
2276221.0,1600928059.023
2272954.0,1600928058.983
2279294.0,1600928059.062
2282316.0,1600928059.103
2285645.0,1600928059.143
2288994.0,1600928059.183
2291814.0,1600928059.224
2294972.0,1600928059.263
2294265.0,1600928059.303
2289836.0,1600928059.344
2285695.0,1600928059.383
2283236.0,1600928059.424
2282425.0,1600928059.464
2282586.0,1600928059.503
2283927.0,1600928059.543
2285520.0,1600928059.585
2287084.0,1600928059.624
2288418.0,1600928059.664
2289338.0,1600928059.705
2291163.0,1600928059.744
2293446.0,1600928059.784
2295644.0,1600928059.826
2298161.0,1600928059.864
2300690.0,1600928059.904
2303352.0,1600928059.945
2305967.0,1600928059.984
2308628.0,1600928060.025
2311085.0,1600928060.066
2313436.0,1600928060.105
2316183.0,1600928060.145
2318282.0,1600928060.186
2317458.0,1600928060.226
2313084.0,1600928060.265
2308141.0,1600928060.306
2304700.0,1600928060.345
2303009.0,1600928060.385
2302140.0,1600928060.427
2302339.0,1600928060.466
2302943.0,1600928060.506
2303628.0,1600928060.547
2304091.0,1600928060.586
2304893.0,1600928060.627
2306149.0,1600928060.667
2307498.0,1600928060.706
2309394.0,1600928060.746
2311792.0,1600928060.787
2314446.0,1600928060.827
2317057.0,1600928060.866
2319305.0,1600928060.908
2321546.0,1600928060.947
2323980.0,1600928060.987
2325991.0,1600928061.029
2328273.0,1600928061.067
2330750.0,1600928061.107
2327852.0,1600928061.148
2321474.0,1600928061.187
2315704.0,1600928061.228
2311808.0,1600928061.269
2309374.0,1600928061.308
2307769.0,1600928061.348
2307365.0,1600928061.389
2307708.0,1600928061.429
2307817.0,1600928061.468
2307992.0,1600928061.509
2307715.0,1600928061.548
2308715.0,1600928061.588
2310354.0,1600928061.63
2311883.0,1600928061.669
2315596.0,1600928061.75
2313287.0,1600928061.709
2318754.0,1600928061.83
2320995.0,1600928061.87
2322668.0,1600928061.909
2317013.0,1600928061.789
2324780.0,1600928061.949
2327176.0,1600928061.991
2328269.0,1600928062.03
2324273.0,1600928062.07
2317100.0,1600928062.111
2310532.0,1600928062.15
2305778.0,1600928062.19
2302817.0,1600928062.232
2300251.0,1600928062.27
2299789.0,1600928062.31
2299905.0,1600928062.351
2299516.0,1600928062.391
2299090.0,1600928062.431
2299457.0,1600928062.472
2300082.0,1600928062.511
2301211.0,1600928062.551
2302455.0,1600928062.592
2304035.0,1600928062.632
2305591.0,1600928062.671
2306679.0,1600928062.712
2307172.0,1600928062.751
2308076.0,1600928062.792
2309470.0,1600928062.833
2312135.0,1600928062.872
2315587.0,1600928062.912
2317921.0,1600928062.953
2316587.0,1600928062.992
2309738.0,1600928063.033
2302350.0,1600928063.073
2297422.0,1600928063.112
2294590.0,1600928063.153
2292377.0,1600928063.194
2291686.0,1600928063.233
2291421.0,1600928063.273
2291231.0,1600928063.314
2291096.0,1600928063.353
2290930.0,1600928063.393
2291397.0,1600928063.435
2292643.0,1600928063.473
2293991.0,1600928063.514
2295695.0,1600928063.555
2297710.0,1600928063.594
2299771.0,1600928063.635
2301577.0,1600928063.675
2303728.0,1600928063.714
2305228.0,1600928063.754
2307403.0,1600928063.796
2309051.0,1600928063.835
2311276.0,1600928063.875
2311212.0,1600928063.916
2304636.0,1600928063.955
2295702.0,1600928063.995
2288063.0,1600928064.037
2283011.0,1600928064.075
2278848.0,1600928064.115
2276872.0,1600928064.157
2276418.0,1600928064.196
2275784.0,1600928064.237
2275039.0,1600928064.277
2274772.0,1600928064.316
2275134.0,1600928064.356
2276147.0,1600928064.397
2276878.0,1600928064.437
2278907.0,1600928064.477
2280634.0,1600928064.518
2283071.0,1600928064.557
2284668.0,1600928064.597
2286856.0,1600928064.639
2288826.0,1600928064.677
2291068.0,1600928064.714
2293133.0,1600928064.751
2295547.0,1600928064.781
2298051.0,1600928064.822
2295451.0,1600928064.862
2287518.0,1600928064.902
2278784.0,1600928064.942
2272536.0,1600928064.983
2268231.0,1600928065.023
2265195.0,1600928065.063
2264692.0,1600928065.102
2265062.0,1600928065.141
2264884.0,1600928065.181
2264312.0,1600928065.223
2264385.0,1600928065.262
2264942.0,1600928065.302
2266554.0,1600928065.344
2268125.0,1600928065.383
2270288.0,1600928065.422
2272256.0,1600928065.462
2274583.0,1600928065.502
2276540.0,1600928065.542
2279172.0,1600928065.583
2281506.0,1600928065.623
2283476.0,1600928065.663
2286510.0,1600928065.701
2289776.0,1600928065.74
2289627.0,1600928065.78
2282582.0,1600928065.822
2273201.0,1600928065.86
2265144.0,1600928065.901
2260019.0,1600928065.942
2256314.0,1600928065.981
2254257.0,1600928066.022
2254233.0,1600928066.063
2254064.0,1600928066.102
2253705.0,1600928066.142
2253462.0,1600928066.184
2254350.0,1600928066.224
2255805.0,1600928066.263
2257763.0,1600928066.304
2260253.0,1600928066.341
2262958.0,1600928066.382
2265364.0,1600928066.424
2267704.0,1600928066.462
2270680.0,1600928066.503
2273392.0,1600928066.544
2275844.0,1600928066.583
2276731.0,1600928066.624
2278798.0,1600928066.663
2280671.0,1600928066.702
2276521.0,1600928066.742
2268303.0,1600928066.783
2262948.0,1600928066.823
2261995.0,1600928066.863
2262297.0,1600928066.904
2261555.0,1600928066.943
2261217.0,1600928066.984
2261243.0,1600928067.023
2260140.0,1600928067.062
2259295.0,1600928067.102
2259214.0,1600928067.143
2260278.0,1600928067.183
2261684.0,1600928067.224
2264035.0,1600928067.264
2266440.0,1600928067.303
2268965.0,1600928067.344
2272182.0,1600928067.383
2274743.0,1600928067.423
2277523.0,1600928067.462
2280630.0,1600928067.504
2283761.0,1600928067.543
2284426.0,1600928067.583
2277429.0,1600928067.625
2266789.0,1600928067.664
2258143.0,1600928067.704
2252816.0,1600928067.743
2249101.0,1600928067.782
2247055.0,1600928067.823
2246833.0,1600928067.864
2246852.0,1600928067.903
2246870.0,1600928067.943
2246488.0,1600928067.985
2247371.0,1600928068.024
2249022.0,1600928068.064
2251149.0,1600928068.103
2253895.0,1600928068.142
2256619.0,1600928068.183
2259811.0,1600928068.225
2262728.0,1600928068.263
2265819.0,1600928068.303
2268793.0,1600928068.344
2271326.0,1600928068.384
2270755.0,1600928068.425
2261543.0,1600928068.465
2250005.0,1600928068.502
2240911.0,1600928068.543
2235021.0,1600928068.584
2230808.0,1600928068.624
2228900.0,1600928068.663
2229301.0,1600928068.705
2228966.0,1600928068.744
2227054.0,1600928068.784
2224867.0,1600928068.826
2223728.0,1600928068.862
2224195.0,1600928068.903
2225362.0,1600928068.944
2227793.0,1600928068.983
2230568.0,1600928069.024
2232608.0,1600928069.065
2234234.0,1600928069.104
2235968.0,1600928069.144
2239797.0,1600928069.184
2244148.0,1600928069.224
2244730.0,1600928069.263
2237457.0,1600928069.304
2228298.0,1600928069.344
2221954.0,1600928069.384
2217965.0,1600928069.426
2215047.0,1600928069.464
2213798.0,1600928069.503
2213484.0,1600928069.544
2213692.0,1600928069.583
2214534.0,1600928069.624
2217181.0,1600928069.666
2217409.0,1600928069.705
2216176.0,1600928069.746
2216597.0,1600928069.787
2218141.0,1600928069.826
2220748.0,1600928069.866
2223561.0,1600928069.907
2226052.0,1600928069.946
2229212.0,1600928069.986
2232320.0,1600928070.028
2235340.0,1600928070.066
2238520.0,1600928070.106
2240374.0,1600928070.149
2232397.0,1600928070.187
2219261.0,1600928070.228
2207824.0,1600928070.268
2200289.0,1600928070.308
2194545.0,1600928070.348
2191044.0,1600928070.389
2189852.0,1600928070.429
2188828.0,1600928070.469
2187526.0,1600928070.508
2186253.0,1600928070.547
2185775.0,1600928070.588
2186609.0,1600928070.63
2188511.0,1600928070.668
2190894.0,1600928070.708
2193433.0,1600928070.75
2195996.0,1600928070.789
2198604.0,1600928070.827
2201095.0,1600928070.867
2203160.0,1600928070.906
2206229.0,1600928070.946
2209674.0,1600928070.988
2211438.0,1600928071.028
2204575.0,1600928071.067
2193247.0,1600928071.108
2183665.0,1600928071.148
2178093.0,1600928071.188
2174147.0,1600928071.23
2171833.0,1600928071.268
2171463.0,1600928071.309
2171644.0,1600928071.35
2171517.0,1600928071.389
2171932.0,1600928071.428
2173100.0,1600928071.469
2175510.0,1600928071.508
2179711.0,1600928071.548
2182172.0,1600928071.589
2182019.0,1600928071.629
2183829.0,1600928071.669
2186822.0,1600928071.71
2191682.0,1600928071.749
2196808.0,1600928071.788
2202514.0,1600928071.83
2208348.0,1600928071.868
2213572.0,1600928071.908
2211877.0,1600928071.95
2202747.0,1600928071.989
2193761.0,1600928072.03
2188988.0,1600928072.07
2186635.0,1600928072.11
2186297.0,1600928072.148
2187620.0,1600928072.189
2189205.0,1600928072.229
2190606.0,1600928072.268
2191778.0,1600928072.31
2193539.0,1600928072.349
2195867.0,1600928072.389
2199411.0,1600928072.431
2203102.0,1600928072.468
2211378.0,1600928072.549
2207430.0,1600928072.508
2219919.0,1600928072.63
2215343.0,1600928072.589
2224134.0,1600928072.67
2228648.0,1600928072.709
2231295.0,1600928072.75
2226704.0,1600928072.791
2217620.0,1600928072.829
2209920.0,1600928072.868
2205269.0,1600928072.949
2206369.0,1600928072.909
2205624.0,1600928072.989
2207455.0,1600928073.031
2211827.0,1600928073.151
2213685.0,1600928073.188
2209249.0,1600928073.07
2210725.0,1600928073.11
2215984.0,1600928073.229
2219054.0,1600928073.27
2222327.0,1600928073.309
2226211.0,1600928073.349
2229849.0,1600928073.388
2233913.0,1600928073.429
2237316.0,1600928073.469
2240894.0,1600928073.509
2242235.0,1600928073.548
2235248.0,1600928073.589
2226398.0,1600928073.63
2219162.0,1600928073.669
2215457.0,1600928073.709
2214543.0,1600928073.751
2214863.0,1600928073.79
2217142.0,1600928073.831
2218465.0,1600928073.871
2219608.0,1600928073.908
2220922.0,1600928073.949
2222859.0,1600928073.99
2225966.0,1600928074.03
2232818.0,1600928074.111
2236950.0,1600928074.15
2229266.0,1600928074.069
2240893.0,1600928074.19
2244770.0,1600928074.232
2248452.0,1600928074.269
2252684.0,1600928074.309
2253137.0,1600928074.35
2245864.0,1600928074.39
2236590.0,1600928074.431
2229894.0,1600928074.471
2226316.0,1600928074.51
2224246.0,1600928074.551
2224384.0,1600928074.59
2226234.0,1600928074.63
2227507.0,1600928074.669
2229005.0,1600928074.71
2229872.0,1600928074.75
2231697.0,1600928074.79
2234316.0,1600928074.832
2237362.0,1600928074.87
2241069.0,1600928074.911
2244818.0,1600928074.95
2248382.0,1600928074.989
2251981.0,1600928075.03
2255518.0,1600928075.071
2258870.0,1600928075.11
2262031.0,1600928075.15
2258009.0,1600928075.192
2248265.0,1600928075.231
2234303.0,1600928075.31
2240052.0,1600928075.269
2231482.0,1600928075.35
2230262.0,1600928075.432
2233084.0,1600928075.511
2231932.0,1600928075.47
2235117.0,1600928075.589
2237021.0,1600928075.63
2239711.0,1600928075.671
2233847.0,1600928075.552
2229667.0,1600928075.39
2243166.0,1600928075.71
2246402.0,1600928075.75
2250273.0,1600928075.791
2254049.0,1600928075.831
2261785.0,1600928075.912
2258010.0,1600928075.871
2269415.0,1600928075.989
2265650.0,1600928075.949
2268644.0,1600928076.03
2251004.0,1600928076.11
2242260.0,1600928076.189
2245537.0,1600928076.15
2240947.0,1600928076.23
2241623.0,1600928076.271
2243481.0,1600928076.31
2244942.0,1600928076.35
2260429.0,1600928076.069
2247503.0,1600928076.432
2246290.0,1600928076.392
2249627.0,1600928076.471
2252439.0,1600928076.511
2255693.0,1600928076.55
2262757.0,1600928076.632
2259010.0,1600928076.59
2266602.0,1600928076.67
2273916.0,1600928076.752
2270363.0,1600928076.711
2281240.0,1600928076.832
2277581.0,1600928076.791
2285355.0,1600928076.871
2285148.0,1600928076.91
2277754.0,1600928076.95
2268791.0,1600928076.991
2262546.0,1600928077.031
2259312.0,1600928077.071
2257639.0,1600928077.112
2258032.0,1600928077.151
2259532.0,1600928077.192
2260464.0,1600928077.231
2261338.0,1600928077.27
2262579.0,1600928077.31
2264071.0,1600928077.352
2266671.0,1600928077.391
2269611.0,1600928077.432
2272746.0,1600928077.472
2276464.0,1600928077.512
2280369.0,1600928077.55
2283611.0,1600928077.591
2287434.0,1600928077.631
2291318.0,1600928077.671
2300920.0,1600928077.791
2297921.0,1600928077.751
2297606.0,1600928077.833
2288546.0,1600928077.872
2280248.0,1600928077.91
2275429.0,1600928077.951
2294514.0,1600928077.712
2273488.0,1600928077.991
2272905.0,1600928078.031
2275387.0,1600928078.111
2273977.0,1600928078.072
2276499.0,1600928078.152
2277582.0,1600928078.193
2278826.0,1600928078.233
2280570.0,1600928078.27
2283077.0,1600928078.311
2286137.0,1600928078.351
2289421.0,1600928078.391
2292727.0,1600928078.433
2296087.0,1600928078.472
2299540.0,1600928078.509
2303155.0,1600928078.551
2306148.0,1600928078.591
2309346.0,1600928078.631
2312562.0,1600928078.671
2309705.0,1600928078.751
2289945.0,1600928078.872
2284340.0,1600928078.913
2296065.0,1600928078.832
2301060.0,1600928078.792
2314741.0,1600928078.711
2281937.0,1600928078.952
2282787.0,1600928078.992
2285288.0,1600928079.032
2287418.0,1600928079.071
2289541.0,1600928079.111
2294370.0,1600928079.192
2291590.0,1600928079.152
2297241.0,1600928079.232
2300737.0,1600928079.273
2311255.0,1600928079.392
2314582.0,1600928079.432
2321566.0,1600928079.512
2318102.0,1600928079.471
2324777.0,1600928079.552
2327896.0,1600928079.592
2330143.0,1600928079.634
2324679.0,1600928079.672
2315035.0,1600928079.713
2307760.0,1600928079.353
2304030.0,1600928079.312
2302538.0,1600928079.791
2306972.0,1600928079.752
2301706.0,1600928079.993
2302476.0,1600928080.033
2303124.0,1600928080.073
2300406.0,1600928079.832
2301585.0,1600928079.952
2299798.0,1600928079.873
2300163.0,1600928079.912
2304573.0,1600928080.112
2307172.0,1600928080.151
2309959.0,1600928080.192
2313106.0,1600928080.233
2316296.0,1600928080.272
2319543.0,1600928080.312
2322657.0,1600928080.354
2328221.0,1600928080.432
2331083.0,1600928080.472
2334109.0,1600928080.512
2325460.0,1600928080.393
2328776.0,1600928080.593
2317522.0,1600928080.633
2308513.0,1600928080.673
2301169.0,1600928080.753
2300334.0,1600928080.791
2303400.0,1600928080.714
2335601.0,1600928080.552
2301322.0,1600928080.833
2301852.0,1600928080.872
2302067.0,1600928080.912
2301809.0,1600928080.953
2301799.0,1600928080.993
2303286.0,1600928081.033
2307837.0,1600928081.11
2310978.0,1600928081.15
2305099.0,1600928081.071
2313962.0,1600928081.191
2317089.0,1600928081.232
2320803.0,1600928081.272
2324293.0,1600928081.312
2326893.0,1600928081.351
2329997.0,1600928081.392
2332818.0,1600928081.434
2335358.0,1600928081.472
2318231.0,1600928081.554
2330265.0,1600928081.513
2300379.0,1600928081.634
2296904.0,1600928081.668
2307012.0,1600928081.593
2295772.0,1600928081.708
2296648.0,1600928081.748
2297307.0,1600928081.789
2297220.0,1600928081.828
2297440.0,1600928081.868
2297984.0,1600928081.909
2299506.0,1600928081.948
2301639.0,1600928081.988
2304728.0,1600928082.03
2311068.0,1600928082.108
2314314.0,1600928082.149
2317477.0,1600928082.189
2320298.0,1600928082.23
2307912.0,1600928082.068
2323711.0,1600928082.27
2329819.0,1600928082.35
2332776.0,1600928082.389
2329228.0,1600928082.429
2316589.0,1600928082.468
2326643.0,1600928082.309
2304082.0,1600928082.51
2296225.0,1600928082.549
2292146.0,1600928082.589
2289875.0,1600928082.631
2290579.0,1600928082.71
2290027.0,1600928082.67
2290153.0,1600928082.749
2288990.0,1600928082.788
2288865.0,1600928082.829
2291838.0,1600928082.909
2294428.0,1600928082.949
2297586.0,1600928082.991
2289978.0,1600928082.87
2300747.0,1600928083.031
2304840.0,1600928083.07
2308715.0,1600928083.109
2310955.0,1600928083.149
2311861.0,1600928083.189
2310954.0,1600928083.231
2313179.0,1600928083.269
2317665.0,1600928083.31
2318834.0,1600928083.351
2296873.0,1600928083.429
2309745.0,1600928083.39
2288377.0,1600928083.47
2279241.0,1600928083.549
2278690.0,1600928083.59
2278712.0,1600928083.63
2278154.0,1600928083.667
2282437.0,1600928083.509
2277216.0,1600928083.71
2276784.0,1600928083.789
2284125.0,1600928083.909
2280924.0,1600928083.869
2295275.0,1600928084.071
2278310.0,1600928083.83
2276548.0,1600928083.749
2289788.0,1600928083.99
2292591.0,1600928084.031
2297675.0,1600928084.11
2300074.0,1600928084.149
2286880.0,1600928083.95
2302734.0,1600928084.19
2305309.0,1600928084.23
2306839.0,1600928084.269
2297379.0,1600928084.311
2279487.0,1600928084.35
2264390.0,1600928084.39
2254935.0,1600928084.432
2248606.0,1600928084.469
2244408.0,1600928084.509
2239258.0,1600928084.631
2242415.0,1600928084.55
2241611.0,1600928084.59
2237292.0,1600928084.671
2236347.0,1600928084.71
2239869.0,1600928084.83
2237904.0,1600928084.792
2236509.0,1600928084.751
2241928.0,1600928084.869
2246655.0,1600928084.95
2248810.0,1600928084.99
2251738.0,1600928085.032
2244427.0,1600928084.91
2253740.0,1600928085.07
2255919.0,1600928085.111
2259122.0,1600928085.152
2262525.0,1600928085.189
2263305.0,1600928085.23
2221205.0,1600928085.35
2251852.0,1600928085.271
2234602.0,1600928085.31
2212897.0,1600928085.392
2207202.0,1600928085.432
2204090.0,1600928085.471
2203444.0,1600928085.51
2200260.0,1600928085.59
2202460.0,1600928085.55
2197984.0,1600928085.632
2197294.0,1600928085.67
2198079.0,1600928085.711
2199142.0,1600928085.752
2201215.0,1600928085.791
2205939.0,1600928085.87
2203444.0,1600928085.832
2208335.0,1600928085.91
2210929.0,1600928085.95
2213657.0,1600928085.991
2216226.0,1600928086.031
2219395.0,1600928086.071
2222603.0,1600928086.112
2226237.0,1600928086.151
2229062.0,1600928086.189
2220738.0,1600928086.23
2202539.0,1600928086.269
2186401.0,1600928086.309
2175356.0,1600928086.351
2166933.0,1600928086.39
2160471.0,1600928086.43
2157708.0,1600928086.471
2156333.0,1600928086.51
2154591.0,1600928086.55
2152461.0,1600928086.592
2151340.0,1600928086.632
2151526.0,1600928086.671
2152959.0,1600928086.712
2155184.0,1600928086.752
2157509.0,1600928086.792
2159641.0,1600928086.832
2162264.0,1600928086.87
2164670.0,1600928086.91
2167430.0,1600928086.952
2170262.0,1600928086.991
2173384.0,1600928087.032
2176384.0,1600928087.072
2179440.0,1600928087.112
2182832.0,1600928087.152
2184367.0,1600928087.191
2173523.0,1600928087.231
2155056.0,1600928087.27
2140141.0,1600928087.312
2129260.0,1600928087.351
2120135.0,1600928087.391
2112671.0,1600928087.433
2108990.0,1600928087.472
2106703.0,1600928087.51
2104184.0,1600928087.551
2101463.0,1600928087.591
2099215.0,1600928087.632
2098186.0,1600928087.672
2097640.0,1600928087.711
2096987.0,1600928087.752
2096594.0,1600928087.793
2097570.0,1600928087.833
2099220.0,1600928087.87
2101474.0,1600928087.912
2103819.0,1600928087.951
2106565.0,1600928087.991
2108046.0,1600928088.033
2108204.0,1600928088.072
2108916.0,1600928088.112
2110217.0,1600928088.153
2118937.0,1600928088.192
2128484.0,1600928088.231
2119903.0,1600928088.272
2106853.0,1600928088.311
2099110.0,1600928088.351
2095774.0,1600928088.393
2093932.0,1600928088.433
2095874.0,1600928088.472
2098823.0,1600928088.513
2100051.0,1600928088.551
2100098.0,1600928088.591
2100214.0,1600928088.633
2101215.0,1600928088.671
2103205.0,1600928088.714
2108981.0,1600928088.791
2105714.0,1600928088.751
2112452.0,1600928088.831
2116601.0,1600928088.872
2120910.0,1600928088.911
2124551.0,1600928088.951
2129013.0,1600928088.993
2133633.0,1600928089.033
2138250.0,1600928089.072
2142723.0,1600928089.113
2147909.0,1600928089.153
2152863.0,1600928089.191
2157182.0,1600928089.233
2155168.0,1600928089.271
2145122.0,1600928089.312
2135494.0,1600928089.353
2129811.0,1600928089.392
2126870.0,1600928089.433
2125421.0,1600928089.474
2125664.0,1600928089.511
2127007.0,1600928089.551
2128271.0,1600928089.593
2128912.0,1600928089.633
2130646.0,1600928089.672
2132950.0,1600928089.713
2136193.0,1600928089.753
2139838.0,1600928089.793
2143407.0,1600928089.835
2147580.0,1600928089.871
2151564.0,1600928089.911
2155549.0,1600928089.953
2159060.0,1600928089.992
2162067.0,1600928090.033
2165935.0,1600928090.073
2170159.0,1600928090.113
2174632.0,1600928090.153
2179030.0,1600928090.194
2183645.0,1600928090.232
2182825.0,1600928090.272
2176712.0,1600928090.313
2171447.0,1600928090.352
2168694.0,1600928090.393
2167489.0,1600928090.435
2167751.0,1600928090.473
2169439.0,1600928090.513
2170839.0,1600928090.553
2172154.0,1600928090.592
2173464.0,1600928090.633
2175345.0,1600928090.673
2178425.0,1600928090.712
2181423.0,1600928090.753
2188835.0,1600928090.834
2184950.0,1600928090.794
2192673.0,1600928090.874
2196174.0,1600928090.913
2200297.0,1600928090.952
2204387.0,1600928090.992
2207859.0,1600928091.034
2211964.0,1600928091.073
2216110.0,1600928091.113
2220123.0,1600928091.154
2220146.0,1600928091.193
2210988.0,1600928091.275
2215651.0,1600928091.234
2207654.0,1600928091.311
2206351.0,1600928091.351
2206218.0,1600928091.392
2208940.0,1600928091.472
2207499.0,1600928091.432
2210503.0,1600928091.513
2211793.0,1600928091.552
2212986.0,1600928091.592
2214830.0,1600928091.634
2217617.0,1600928091.673
2220545.0,1600928091.713
2223475.0,1600928091.754
2226416.0,1600928091.793
2232596.0,1600928091.875
2229815.0,1600928091.834
2235800.0,1600928091.912
2238760.0,1600928091.952
2241765.0,1600928091.994
2244572.0,1600928092.034
2247749.0,1600928092.073
2248021.0,1600928092.114
2243266.0,1600928092.154
2237391.0,1600928092.194
2232650.0,1600928092.236
2229793.0,1600928092.272
2228014.0,1600928092.313
2227808.0,1600928092.354
2228364.0,1600928092.393
2229307.0,1600928092.434
2230265.0,1600928092.475
2230995.0,1600928092.514
2231682.0,1600928092.554
2233763.0,1600928092.593
2236498.0,1600928092.633
2239516.0,1600928092.673
2242830.0,1600928092.714
2248001.0,1600928092.753
2249457.0,1600928092.794
2250376.0,1600928092.836
2251886.0,1600928092.874
2254332.0,1600928092.914
2257429.0,1600928092.954
2261360.0,1600928092.993
2265252.0,1600928093.034
2265255.0,1600928093.074
2262488.0,1600928093.114
2258763.0,1600928093.154
2256787.0,1600928093.195
2255613.0,1600928093.235
2255365.0,1600928093.273
2255982.0,1600928093.314
2257312.0,1600928093.353
2258007.0,1600928093.394
2258718.0,1600928093.436
2259804.0,1600928093.474
2261343.0,1600928093.514
2263332.0,1600928093.556
2265340.0,1600928093.593
2267755.0,1600928093.634
2270191.0,1600928093.675
2273009.0,1600928093.714
2275947.0,1600928093.754
2278711.0,1600928093.796
2281261.0,1600928093.835
2284103.0,1600928093.875
2286812.0,1600928093.916
2289764.0,1600928093.955
2292606.0,1600928093.995
2291595.0,1600928094.037
2285805.0,1600928094.075
2279825.0,1600928094.115
2275440.0,1600928094.157
2272611.0,1600928094.196
2270486.0,1600928094.237
2270157.0,1600928094.277
2270479.0,1600928094.316
2270172.0,1600928094.357
2269951.0,1600928094.398
2270089.0,1600928094.438
2270854.0,1600928094.478
2274184.0,1600928094.558
2276242.0,1600928094.596
2278259.0,1600928094.638
2280901.0,1600928094.677
2272428.0,1600928094.519
2283280.0,1600928094.717
2285526.0,1600928094.758
2288409.0,1600928094.798
2294109.0,1600928094.879
2291520.0,1600928094.839
2296890.0,1600928094.918
2300434.0,1600928094.956
2302616.0,1600928094.998
2299730.0,1600928095.038
2292176.0,1600928095.077
2281208.0,1600928095.158
2277324.0,1600928095.278
2277695.0,1600928095.317
2278982.0,1600928095.198
2277516.0,1600928095.24
2285469.0,1600928095.118
2277596.0,1600928095.358
2277183.0,1600928095.397
2277558.0,1600928095.438
2278571.0,1600928095.479
2282665.0,1600928095.558
2280243.0,1600928095.518
2284982.0,1600928095.6
2287659.0,1600928095.637
2290174.0,1600928095.677
2292747.0,1600928095.718
2295446.0,1600928095.757
2298178.0,1600928095.798
2300954.0,1600928095.84
2303493.0,1600928095.878
2306573.0,1600928095.918
2309161.0,1600928095.96
2310641.0,1600928095.997
2306013.0,1600928096.038
2296993.0,1600928096.078
2289660.0,1600928096.118
2286010.0,1600928096.158
2284318.0,1600928096.199
2283871.0,1600928096.239
2284336.0,1600928096.279
2284516.0,1600928096.318
2284265.0,1600928096.357
2284246.0,1600928096.398
2285147.0,1600928096.439
2286443.0,1600928096.478
2287998.0,1600928096.518
2290158.0,1600928096.559
2292642.0,1600928096.598
2295174.0,1600928096.639
2297456.0,1600928096.679
2299885.0,1600928096.719
2302386.0,1600928096.759
2305123.0,1600928096.798
2307233.0,1600928096.838
2309225.0,1600928096.878
2310425.0,1600928096.919
2311725.0,1600928096.958
2309093.0,1600928096.998
2298241.0,1600928097.04
2286954.0,1600928097.079
2278958.0,1600928097.119
2274207.0,1600928097.158
2270533.0,1600928097.198
2269175.0,1600928097.239
2269166.0,1600928097.279
2268626.0,1600928097.318
2267284.0,1600928097.359
2266461.0,1600928097.4
2267034.0,1600928097.44
2268475.0,1600928097.478
2269942.0,1600928097.519
2272125.0,1600928097.558
2274666.0,1600928097.598
2277158.0,1600928097.64
2279179.0,1600928097.679
2281607.0,1600928097.719
2284158.0,1600928097.76
2286524.0,1600928097.8
2289081.0,1600928097.838
2292238.0,1600928097.879
2294843.0,1600928097.918
2296526.0,1600928097.958
2288369.0,1600928098.0
2273773.0,1600928098.04
2261890.0,1600928098.079
2254597.0,1600928098.12
2248754.0,1600928098.16
2244125.0,1600928098.198
2242347.0,1600928098.24
2240404.0,1600928098.278
2238364.0,1600928098.319
2236639.0,1600928098.36
2235028.0,1600928098.399
2235531.0,1600928098.44
2236872.0,1600928098.481
2238195.0,1600928098.518
2240236.0,1600928098.558
2242583.0,1600928098.6
2244516.0,1600928098.639
2246968.0,1600928098.679
2249315.0,1600928098.72
2251296.0,1600928098.759
2253740.0,1600928098.8
2256207.0,1600928098.842
2258159.0,1600928098.878
2261086.0,1600928098.918
2263108.0,1600928098.96
2254070.0,1600928098.999
2238318.0,1600928099.04
2225223.0,1600928099.08
2216981.0,1600928099.119
2210085.0,1600928099.16
2202785.0,1600928099.201
2197846.0,1600928099.239
2194047.0,1600928099.279
2190755.0,1600928099.32
2187280.0,1600928099.359
2185315.0,1600928099.399
2185497.0,1600928099.441
2187098.0,1600928099.48
2189102.0,1600928099.52
2191931.0,1600928099.559
2194627.0,1600928099.599
2197562.0,1600928099.64
2200760.0,1600928099.68
2203785.0,1600928099.719
2207080.0,1600928099.76
2210022.0,1600928099.801
2213509.0,1600928099.839
2217013.0,1600928099.878
2220778.0,1600928099.919
2224404.0,1600928099.958
2226837.0,1600928099.998
2218099.0,1600928100.04
2201476.0,1600928100.078
2187883.0,1600928100.118
2179344.0,1600928100.16
2172208.0,1600928100.199
2166416.0,1600928100.239
2164126.0,1600928100.28
2162804.0,1600928100.319
2160976.0,1600928100.359
2159201.0,1600928100.4
2158744.0,1600928100.44
2159736.0,1600928100.48
2161706.0,1600928100.521
2164279.0,1600928100.56
2167335.0,1600928100.6
2170638.0,1600928100.642
2173698.0,1600928100.679
2177464.0,1600928100.719
2180841.0,1600928100.76
2183972.0,1600928100.8
2187831.0,1600928100.841
2191612.0,1600928100.881
2195663.0,1600928100.92
2199528.0,1600928100.961
2203696.0,1600928101.002
2206619.0,1600928101.04
2197529.0,1600928101.079
2181230.0,1600928101.121
2168126.0,1600928101.16
2160062.0,1600928101.2
2154604.0,1600928101.242
2150348.0,1600928101.281
2148491.0,1600928101.321
2147152.0,1600928101.36
2145355.0,1600928101.4
2143890.0,1600928101.441
2143549.0,1600928101.481
2144772.0,1600928101.518
2146706.0,1600928101.558
2149261.0,1600928101.599
2152063.0,1600928101.639
2154576.0,1600928101.678
2157750.0,1600928101.72
2161557.0,1600928101.76
2168560.0,1600928101.799
2173241.0,1600928101.841
2175258.0,1600928101.88
2178907.0,1600928101.92
2184861.0,1600928101.961
2190882.0,1600928102.0
2196937.0,1600928102.041
2197104.0,1600928102.082
2185262.0,1600928102.121
2171537.0,1600928102.162
2161461.0,1600928102.201
2154769.0,1600928102.241
2149752.0,1600928102.28
2147025.0,1600928102.321
2147043.0,1600928102.361
2146967.0,1600928102.401
2146590.0,1600928102.443
2146898.0,1600928102.482
2148275.0,1600928102.52
2150387.0,1600928102.561
2153581.0,1600928102.6
2156924.0,1600928102.641
2161051.0,1600928102.682
2164514.0,1600928102.721
2168451.0,1600928102.761
2172791.0,1600928102.803
2176626.0,1600928102.842
2180900.0,1600928102.88
2185443.0,1600928102.921
2190141.0,1600928102.96
2194750.0,1600928103.001
2199607.0,1600928103.043
2205197.0,1600928103.081
2206564.0,1600928103.121
2196647.0,1600928103.163
2183494.0,1600928103.202
2173647.0,1600928103.241
2166800.0,1600928103.281
2161570.0,1600928103.321
2157948.0,1600928103.361
2157196.0,1600928103.402
2156532.0,1600928103.442
2155865.0,1600928103.482
2155615.0,1600928103.523
2156037.0,1600928103.56
2158018.0,1600928103.6
2161102.0,1600928103.642
2164411.0,1600928103.681
2168315.0,1600928103.721
2171826.0,1600928103.763
2175317.0,1600928103.802
2179043.0,1600928103.843
2186571.0,1600928103.92
2182937.0,1600928103.883
2191022.0,1600928103.961
2195223.0,1600928104.002
2195876.0,1600928104.042
2196097.0,1600928104.081
2198294.0,1600928104.122
2201446.0,1600928104.162
2196648.0,1600928104.202
2185653.0,1600928104.244
2173648.0,1600928104.321
2177454.0,1600928104.282
2171384.0,1600928104.362
2169832.0,1600928104.442
2169736.0,1600928104.401
2170902.0,1600928104.483
2170861.0,1600928104.522
2170913.0,1600928104.562
2170852.0,1600928104.604
2172122.0,1600928104.641
2174352.0,1600928104.681
2177422.0,1600928104.722
2180604.0,1600928104.761
2183974.0,1600928104.802
2187680.0,1600928104.844
2190985.0,1600928104.882
2194468.0,1600928104.922
2198216.0,1600928104.964
2202353.0,1600928105.001
2206193.0,1600928105.042
2210769.0,1600928105.082
2214999.0,1600928105.122
2219475.0,1600928105.162
2222595.0,1600928105.203
2216015.0,1600928105.243
2203404.0,1600928105.283
2192368.0,1600928105.324
2184981.0,1600928105.361
2179755.0,1600928105.401
2175620.0,1600928105.443
2174689.0,1600928105.482
2174168.0,1600928105.522
2173408.0,1600928105.563
2172859.0,1600928105.644
2174091.0,1600928105.679
2172480.0,1600928105.603
2176331.0,1600928105.718
2178648.0,1600928105.758
2181775.0,1600928105.799
2184436.0,1600928105.839
2187570.0,1600928105.878
2190416.0,1600928105.919
2193152.0,1600928105.959
2196042.0,1600928105.999
2199603.0,1600928106.04
2203279.0,1600928106.079
2206823.0,1600928106.119
2210735.0,1600928106.16
2214248.0,1600928106.199
2212914.0,1600928106.24
2202093.0,1600928106.28
2188679.0,1600928106.319
2178254.0,1600928106.359
2171351.0,1600928106.398
2166313.0,1600928106.437
2163555.0,1600928106.477
2162539.0,1600928106.518
2161223.0,1600928106.557
2159319.0,1600928106.598
2157832.0,1600928106.637
2158111.0,1600928106.676
2159347.0,1600928106.716
2161206.0,1600928106.757
2163420.0,1600928106.796
2166040.0,1600928106.837
2171262.0,1600928106.917
2168540.0,1600928106.878
2174028.0,1600928106.957
2177011.0,1600928106.998
2180401.0,1600928107.038
2183836.0,1600928107.077
2190713.0,1600928107.158
2187270.0,1600928107.119
2194388.0,1600928107.24
2183842.0,1600928107.279
2194431.0,1600928107.198
2168758.0,1600928107.317
2156213.0,1600928107.358
2147526.0,1600928107.398
2139721.0,1600928107.439
2134391.0,1600928107.479
2132230.0,1600928107.518
2129544.0,1600928107.559
2126500.0,1600928107.6
2123656.0,1600928107.638
2123035.0,1600928107.677
2123938.0,1600928107.719
2125332.0,1600928107.758
2127524.0,1600928107.798
2130122.0,1600928107.84
2132613.0,1600928107.879
2135318.0,1600928107.919
2138073.0,1600928107.96
2140843.0,1600928107.997
2144310.0,1600928108.038
2147566.0,1600928108.079
2150970.0,1600928108.118
2154770.0,1600928108.158
2158879.0,1600928108.2
2162655.0,1600928108.239
2159545.0,1600928108.279
2146861.0,1600928108.318
2132351.0,1600928108.358
2121771.0,1600928108.398
2114135.0,1600928108.44
2107484.0,1600928108.479
2103648.0,1600928108.519
2102294.0,1600928108.56
2100838.0,1600928108.599
2099158.0,1600928108.638
2098033.0,1600928108.679
2098609.0,1600928108.718
2100313.0,1600928108.758
2102281.0,1600928108.799
2105762.0,1600928108.839
2108153.0,1600928108.879
2111152.0,1600928108.92
2114486.0,1600928108.959
2117840.0,1600928108.998
2121946.0,1600928109.04
2125742.0,1600928109.078
2130001.0,1600928109.118
2134562.0,1600928109.16
2139242.0,1600928109.197
2144010.0,1600928109.238
2148174.0,1600928109.279
2145596.0,1600928109.318
2133836.0,1600928109.358
2121914.0,1600928109.399
2114553.0,1600928109.439
2109519.0,1600928109.479
2105369.0,1600928109.52
2104627.0,1600928109.559
2104667.0,1600928109.6
2104398.0,1600928109.642
2103386.0,1600928109.678
2104049.0,1600928109.718
2105730.0,1600928109.759
2109203.0,1600928109.799
2112773.0,1600928109.84
2116396.0,1600928109.88
2120499.0,1600928109.919
2124368.0,1600928109.96
2128477.0,1600928110.001
2132364.0,1600928110.039
2136210.0,1600928110.078
2140694.0,1600928110.12
2145238.0,1600928110.159
2149871.0,1600928110.199
2154417.0,1600928110.241
2158719.0,1600928110.28
2163208.0,1600928110.32
2164885.0,1600928110.359
2157072.0,1600928110.399
2144383.0,1600928110.44
2138043.0,1600928110.48
2136626.0,1600928110.52
2131020.0,1600928110.56
2124969.0,1600928110.601
2122502.0,1600928110.641
2122126.0,1600928110.678
2122397.0,1600928110.72
2123367.0,1600928110.759
2124957.0,1600928110.799
2127462.0,1600928110.841
2130818.0,1600928110.88
2134867.0,1600928110.92
2138920.0,1600928110.961
2142679.0,1600928111.0
2146908.0,1600928111.039
2151736.0,1600928111.08
2156051.0,1600928111.119
2160780.0,1600928111.159
2165728.0,1600928111.201
2170143.0,1600928111.241
2174795.0,1600928111.28
2179744.0,1600928111.321
2184553.0,1600928111.361
2189227.0,1600928111.399
2187731.0,1600928111.441
2179900.0,1600928111.479
2171040.0,1600928111.519
2164813.0,1600928111.561
2161131.0,1600928111.6
2157706.0,1600928111.641
2156713.0,1600928111.682
2157161.0,1600928111.721
2157975.0,1600928111.758
2158646.0,1600928111.799
2159661.0,1600928111.839
2161826.0,1600928111.878
2164881.0,1600928111.919
2168118.0,1600928111.959
2171494.0,1600928111.999
2174827.0,1600928112.041
2178687.0,1600928112.079
2182556.0,1600928112.119
2186129.0,1600928112.161
2189745.0,1600928112.2
2193469.0,1600928112.241
2197105.0,1600928112.282
2200786.0,1600928112.321
2204087.0,1600928112.361
2207908.0,1600928112.4
2209740.0,1600928112.44
2205275.0,1600928112.48
2197735.0,1600928112.521
2190423.0,1600928112.56
2185649.0,1600928112.6
2182374.0,1600928112.642
2180917.0,1600928112.681
2181565.0,1600928112.721
2182034.0,1600928112.76
2182108.0,1600928112.8
2181991.0,1600928112.841
2182609.0,1600928112.881
2183734.0,1600928112.92
2186068.0,1600928112.961
2188645.0,1600928113.002
2191181.0,1600928113.042
2193993.0,1600928113.081
2196861.0,1600928113.12
2199752.0,1600928113.16
2202678.0,1600928113.2
2205905.0,1600928113.242
2209236.0,1600928113.28
2212397.0,1600928113.321
2216119.0,1600928113.362
2215688.0,1600928113.401
2209145.0,1600928113.44
2200370.0,1600928113.481
2193569.0,1600928113.52
2188977.0,1600928113.56
2185776.0,1600928113.602
2184981.0,1600928113.642
2185351.0,1600928113.681
2185323.0,1600928113.722
2185072.0,1600928113.762
2185187.0,1600928113.8
2186182.0,1600928113.842
2187718.0,1600928113.88
2189786.0,1600928113.92
2192458.0,1600928113.962
2195116.0,1600928114.001
2197782.0,1600928114.042
2200695.0,1600928114.083
2203506.0,1600928114.122
2206203.0,1600928114.16
2209212.0,1600928114.201
2212200.0,1600928114.241
2215664.0,1600928114.281
2217609.0,1600928114.322
2212444.0,1600928114.361
2202938.0,1600928114.401
2193073.0,1600928114.443
2186566.0,1600928114.482
2182350.0,1600928114.52
2179015.0,1600928114.561
2177273.0,1600928114.601
2175444.0,1600928114.642
2174215.0,1600928114.682
2172612.0,1600928114.721
2170608.0,1600928114.762
2171184.0,1600928114.803
2174011.0,1600928114.843
2177576.0,1600928114.88
2181714.0,1600928114.921
2186415.0,1600928114.961
2191288.0,1600928115.001
2195942.0,1600928115.043
2199533.0,1600928115.081
2202335.0,1600928115.122
2205177.0,1600928115.163
2208951.0,1600928115.202
2212338.0,1600928115.241
2212970.0,1600928115.282
2205724.0,1600928115.321
2193989.0,1600928115.361
2184388.0,1600928115.403
2177980.0,1600928115.442
2172798.0,1600928115.482
2169629.0,1600928115.523
2168455.0,1600928115.56
2168198.0,1600928115.601
2167279.0,1600928115.643
2166850.0,1600928115.681
2168106.0,1600928115.721
2169748.0,1600928115.763
2171673.0,1600928115.802
2174054.0,1600928115.843
2177038.0,1600928115.884
2180013.0,1600928115.921
2183419.0,1600928115.961
2186772.0,1600928116.002
2190240.0,1600928116.042
2193674.0,1600928116.082
2197591.0,1600928116.123
2201526.0,1600928116.162
2205893.0,1600928116.202
2205353.0,1600928116.244
2197462.0,1600928116.281
2186267.0,1600928116.321
2177663.0,1600928116.362
2172261.0,1600928116.402
2167897.0,1600928116.443
2165275.0,1600928116.483
2164797.0,1600928116.522
2165192.0,1600928116.563
2165586.0,1600928116.602
2166027.0,1600928116.642
2166528.0,1600928116.681
2167743.0,1600928116.723
2169803.0,1600928116.762
2172142.0,1600928116.802
2174469.0,1600928116.844
2176953.0,1600928116.88
2179627.0,1600928116.921
2182081.0,1600928116.962
2185494.0,1600928117.001
2189391.0,1600928117.042
2193711.0,1600928117.082
2197944.0,1600928117.122
2202212.0,1600928117.162
2204493.0,1600928117.203
2198548.0,1600928117.243
2188262.0,1600928117.283
2179056.0,1600928117.324
2172951.0,1600928117.363
2168307.0,1600928117.401
2165181.0,1600928117.443
2164134.0,1600928117.482
2163904.0,1600928117.522
2163669.0,1600928117.563
2163493.0,1600928117.603
2164566.0,1600928117.644
2168450.0,1600928117.724
2166252.0,1600928117.685
2171594.0,1600928117.764
2174857.0,1600928117.805
2178290.0,1600928117.845
2181922.0,1600928117.884
2185156.0,1600928117.925
2188820.0,1600928117.964
2192422.0,1600928118.004
2196473.0,1600928118.046
2200375.0,1600928118.084
2204501.0,1600928118.124
2208335.0,1600928118.166
2206359.0,1600928118.205
2197038.0,1600928118.246
2186069.0,1600928118.286
2178969.0,1600928118.325
2174568.0,1600928118.366
2171758.0,1600928118.407
2171425.0,1600928118.447
2172046.0,1600928118.485
2172303.0,1600928118.526
2172095.0,1600928118.565
2172926.0,1600928118.605
2174577.0,1600928118.647
2176975.0,1600928118.686
2179682.0,1600928118.726
2182859.0,1600928118.768
2186185.0,1600928118.807
2189771.0,1600928118.846
2193628.0,1600928118.886
2196837.0,1600928118.925
2200605.0,1600928118.966
2204719.0,1600928119.007
2208562.0,1600928119.047
2212511.0,1600928119.086
2212503.0,1600928119.128
2204945.0,1600928119.167
2193349.0,1600928119.205
2184836.0,1600928119.247
2180147.0,1600928119.286
2176081.0,1600928119.326
2174620.0,1600928119.367
2174651.0,1600928119.406
2174978.0,1600928119.445
2174570.0,1600928119.486
2174635.0,1600928119.525
2175544.0,1600928119.565
2177533.0,1600928119.606
2180479.0,1600928119.646
2183202.0,1600928119.686
2186422.0,1600928119.727
2190073.0,1600928119.766
2193341.0,1600928119.806
2196281.0,1600928119.848
2199956.0,1600928119.887
2203638.0,1600928119.927
2207110.0,1600928119.966
2210862.0,1600928120.006
2213478.0,1600928120.047
2209143.0,1600928120.087
2198687.0,1600928120.126
2188523.0,1600928120.167
2182587.0,1600928120.208
2178539.0,1600928120.248
2175680.0,1600928120.287
2175247.0,1600928120.327
2175847.0,1600928120.366
2175657.0,1600928120.406
2175860.0,1600928120.448
2176825.0,1600928120.487
2179054.0,1600928120.527
2182271.0,1600928120.568
2185681.0,1600928120.607
2189273.0,1600928120.646
2192703.0,1600928120.687
2195442.0,1600928120.726
2198106.0,1600928120.766
2201200.0,1600928120.808
2204872.0,1600928120.848
2208892.0,1600928120.887
2212912.0,1600928120.928
2216913.0,1600928120.968
2219554.0,1600928121.006
2214539.0,1600928121.048
2204588.0,1600928121.086
2196647.0,1600928121.127
2192597.0,1600928121.168
2190075.0,1600928121.207
2188698.0,1600928121.248
2189158.0,1600928121.289
2189923.0,1600928121.328
2190501.0,1600928121.366
2190190.0,1600928121.407
2190990.0,1600928121.447
2192841.0,1600928121.487
2195216.0,1600928121.528
2198061.0,1600928121.567
2200493.0,1600928121.608
2202961.0,1600928121.65
2205861.0,1600928121.686
2208435.0,1600928121.726
2211579.0,1600928121.768
2214622.0,1600928121.799
2219449.0,1600928121.84
2225068.0,1600928121.88
2227045.0,1600928121.919
2226647.0,1600928121.959
2220716.0,1600928122.0
2212924.0,1600928122.04
2208327.0,1600928122.08
2207097.0,1600928122.121
2207776.0,1600928122.16
2210071.0,1600928122.2
2213207.0,1600928122.242
2215505.0,1600928122.28
2217710.0,1600928122.32
2219464.0,1600928122.361
2221810.0,1600928122.4
2225269.0,1600928122.441
2228572.0,1600928122.482
2232221.0,1600928122.519
2235930.0,1600928122.552
2239873.0,1600928122.594
2243867.0,1600928122.63
2247696.0,1600928122.668
2251403.0,1600928122.709
2255121.0,1600928122.748
2258994.0,1600928122.788
2263695.0,1600928122.83
2267898.0,1600928122.869
2269919.0,1600928122.909
2266365.0,1600928122.95
2259586.0,1600928122.99
2254960.0,1600928123.028
2252578.0,1600928123.069
2251582.0,1600928123.108
2251909.0,1600928123.148
2252924.0,1600928123.19
2254548.0,1600928123.229
2255315.0,1600928123.269
2256425.0,1600928123.31
2258478.0,1600928123.35
2260598.0,1600928123.388
2263318.0,1600928123.43
2266233.0,1600928123.468
2269194.0,1600928123.509
2272004.0,1600928123.55
2274265.0,1600928123.589
2276929.0,1600928123.63
2279594.0,1600928123.671
2285229.0,1600928123.748
2282422.0,1600928123.71
2288007.0,1600928123.789
2290757.0,1600928123.829
2291112.0,1600928123.869
2286796.0,1600928123.91
2279828.0,1600928123.949
2274516.0,1600928123.99
2271989.0,1600928124.032
2270548.0,1600928124.068
2269888.0,1600928124.108
2270758.0,1600928124.15
2271603.0,1600928124.189
2271687.0,1600928124.23
2271908.0,1600928124.27
2272694.0,1600928124.31
2274234.0,1600928124.35
2276028.0,1600928124.389
2278382.0,1600928124.429
2280902.0,1600928124.469
2283898.0,1600928124.51
2286036.0,1600928124.549
2288767.0,1600928124.586
2291532.0,1600928124.628
2293766.0,1600928124.666
2296438.0,1600928124.706
2299638.0,1600928124.748
2301938.0,1600928124.788
2299374.0,1600928124.829
2293099.0,1600928124.869
2286508.0,1600928124.908
2282184.0,1600928124.949
2279631.0,1600928124.99
2278292.0,1600928125.03
2278243.0,1600928125.07
2278416.0,1600928125.111
2278508.0,1600928125.15
2278516.0,1600928125.19
2278968.0,1600928125.23
2279986.0,1600928125.269
2281592.0,1600928125.309
2283312.0,1600928125.351
2285676.0,1600928125.39
2288200.0,1600928125.431
2290281.0,1600928125.471
2292916.0,1600928125.511
2295288.0,1600928125.549
2297757.0,1600928125.59
2300420.0,1600928125.63
2302629.0,1600928125.67
2305396.0,1600928125.711
2304957.0,1600928125.75
2299614.0,1600928125.79
2291865.0,1600928125.832
2285404.0,1600928125.871
2281823.0,1600928125.909
2279629.0,1600928125.95
2279051.0,1600928125.989
2279083.0,1600928126.03
2278985.0,1600928126.071
2279077.0,1600928126.11
2279238.0,1600928126.151
2279987.0,1600928126.192
2281171.0,1600928126.232
2282142.0,1600928126.269
2283432.0,1600928126.31
2285331.0,1600928126.35
2286385.0,1600928126.39
2287579.0,1600928126.432
2288706.0,1600928126.47
2288434.0,1600928126.511
2288399.0,1600928126.552
2289136.0,1600928126.589
2290787.0,1600928126.63
2291891.0,1600928126.671
2290467.0,1600928126.709
2289510.0,1600928126.749
2289631.0,1600928126.79
2286198.0,1600928126.83
2282669.0,1600928126.869
2281349.0,1600928126.91
2282508.0,1600928126.949
2284609.0,1600928126.99
2286898.0,1600928127.031
2289161.0,1600928127.07
2291515.0,1600928127.11
2294259.0,1600928127.151
2296833.0,1600928127.19
2298901.0,1600928127.231
2302329.0,1600928127.271
2305516.0,1600928127.31
2308329.0,1600928127.35
2311171.0,1600928127.391
2314179.0,1600928127.432
2316989.0,1600928127.471
2319275.0,1600928127.511
2322018.0,1600928127.55
2323673.0,1600928127.59
2319885.0,1600928127.632
2304041.0,1600928127.711
2312025.0,1600928127.671
2298370.0,1600928127.752
2293023.0,1600928127.832
2294897.0,1600928127.791
2292813.0,1600928127.871
2292716.0,1600928127.91
2292294.0,1600928127.95
2291358.0,1600928127.992
2291553.0,1600928128.071
2293513.0,1600928128.112
2295605.0,1600928128.151
2298384.0,1600928128.192
2301303.0,1600928128.232
2303787.0,1600928128.27
2306616.0,1600928128.311
2309526.0,1600928128.352
2290661.0,1600928128.031
2312206.0,1600928128.391
2314811.0,1600928128.432
2317481.0,1600928128.473
2320017.0,1600928128.512
2316713.0,1600928128.55
2307812.0,1600928128.591
2297880.0,1600928128.631
2291129.0,1600928128.671
2286580.0,1600928128.712
2283381.0,1600928128.751
2282662.0,1600928128.792
2282040.0,1600928128.834
2281412.0,1600928128.872
2280230.0,1600928128.91
2279982.0,1600928128.952
2280279.0,1600928128.991
2281734.0,1600928129.032
2283053.0,1600928129.072
2285094.0,1600928129.111
2287621.0,1600928129.152
2289535.0,1600928129.193
2292051.0,1600928129.233
2294126.0,1600928129.27
2296715.0,1600928129.312
2299056.0,1600928129.351
2301685.0,1600928129.391
2303135.0,1600928129.433
2298447.0,1600928129.472
2288770.0,1600928129.512
2278908.0,1600928129.553
2271575.0,1600928129.59
2266797.0,1600928129.632
2264380.0,1600928129.668
2263819.0,1600928129.707
2263227.0,1600928129.747
2262163.0,1600928129.788
2260869.0,1600928129.828
2260691.0,1600928129.867
2261386.0,1600928129.909
2263111.0,1600928129.948
2265312.0,1600928129.988
2267473.0,1600928130.03
2269811.0,1600928130.068
2272327.0,1600928130.108
2274667.0,1600928130.15
2277429.0,1600928130.189
2280307.0,1600928130.23
2283122.0,1600928130.271
2283087.0,1600928130.31
2275279.0,1600928130.348
2263574.0,1600928130.389
2253548.0,1600928130.429
2247896.0,1600928130.469
2243586.0,1600928130.51
2241339.0,1600928130.549
2241486.0,1600928130.59
2241135.0,1600928130.632
2239485.0,1600928130.668
2237950.0,1600928130.708
2237335.0,1600928130.75
2237168.0,1600928130.789
2237302.0,1600928130.83
2238479.0,1600928130.87
2241359.0,1600928130.909
2244744.0,1600928130.95
2247831.0,1600928130.991
2251555.0,1600928131.029
2254655.0,1600928131.068
2252862.0,1600928131.11
2242755.0,1600928131.149
2230712.0,1600928131.189
2221639.0,1600928131.231
2216752.0,1600928131.27
2213867.0,1600928131.31
2213838.0,1600928131.351
2214926.0,1600928131.388
2214853.0,1600928131.429
2213574.0,1600928131.47
2212595.0,1600928131.509
2212646.0,1600928131.549
2216286.0,1600928131.63
2213984.0,1600928131.591
2218874.0,1600928131.67
2221877.0,1600928131.711
2224817.0,1600928131.748
2228121.0,1600928131.789
2229241.0,1600928131.831
2221569.0,1600928131.869
2207837.0,1600928131.909
2195879.0,1600928131.951
2188932.0,1600928131.99
2185213.0,1600928132.031
2183474.0,1600928132.072
2184237.0,1600928132.109
2185180.0,1600928132.149
2184840.0,1600928132.19
2184652.0,1600928132.232
2185353.0,1600928132.267
2187792.0,1600928132.309
2190383.0,1600928132.348
2193849.0,1600928132.389
2197891.0,1600928132.431
2201851.0,1600928132.469
2205798.0,1600928132.51
2209515.0,1600928132.551
2213396.0,1600928132.59
2211222.0,1600928132.631
2198636.0,1600928132.672
2183300.0,1600928132.709
2172449.0,1600928132.749
2165087.0,1600928132.791
2160002.0,1600928132.83
2157667.0,1600928132.87
2157796.0,1600928132.911
2158372.0,1600928132.95
2158291.0,1600928132.991
2158409.0,1600928133.031
2159621.0,1600928133.069
2161465.0,1600928133.11
2164633.0,1600928133.151
2168139.0,1600928133.19
2172157.0,1600928133.231
2176130.0,1600928133.272
2180507.0,1600928133.311
2184439.0,1600928133.351
2189004.0,1600928133.39
2193114.0,1600928133.43
2197675.0,1600928133.47
2202615.0,1600928133.511
2202756.0,1600928133.55
2192075.0,1600928133.591
2177008.0,1600928133.632
2167331.0,1600928133.671
2161639.0,1600928133.711
2157753.0,1600928133.75
2155952.0,1600928133.79
2156470.0,1600928133.831
2157953.0,1600928133.871
2159136.0,1600928133.91
2160014.0,1600928133.951
2161967.0,1600928133.992
2164830.0,1600928134.032
2168337.0,1600928134.071
2172494.0,1600928134.11
2176987.0,1600928134.15
2181091.0,1600928134.19
2185599.0,1600928134.232
2190296.0,1600928134.27
2195187.0,1600928134.311
2199741.0,1600928134.352
2204628.0,1600928134.391
2209344.0,1600928134.43
2214079.0,1600928134.471
2218598.0,1600928134.51
2218959.0,1600928134.551
2213714.0,1600928134.592
2206517.0,1600928134.632
2202435.0,1600928134.671
2200920.0,1600928134.712
2200114.0,1600928134.752
2200681.0,1600928134.789
2202255.0,1600928134.831
2204461.0,1600928134.869
2206388.0,1600928134.909
2208426.0,1600928134.95
2211095.0,1600928134.989
2214304.0,1600928135.031
2217399.0,1600928135.071
2221293.0,1600928135.111
2225005.0,1600928135.151
2229010.0,1600928135.192
2232951.0,1600928135.232
2237015.0,1600928135.272
2240901.0,1600928135.313
2244935.0,1600928135.35
2249119.0,1600928135.391
2253107.0,1600928135.432
2256810.0,1600928135.471
2260764.0,1600928135.511
2263817.0,1600928135.553
2262488.0,1600928135.592
2259734.0,1600928135.633
2257812.0,1600928135.671
2258205.0,1600928135.71
2259191.0,1600928135.751
2261023.0,1600928135.792
2263399.0,1600928135.832
2265899.0,1600928135.872
2268221.0,1600928135.913
2271029.0,1600928135.952
2273140.0,1600928135.99
2275677.0,1600928136.032
2278990.0,1600928136.071
2282397.0,1600928136.111
2285351.0,1600928136.152
2288621.0,1600928136.191
2292098.0,1600928136.233
2295442.0,1600928136.273
2298742.0,1600928136.312
2302162.0,1600928136.351
2305073.0,1600928136.392
2308307.0,1600928136.432
2311414.0,1600928136.471
2314588.0,1600928136.513
2316744.0,1600928136.552
2316048.0,1600928136.592
2313800.0,1600928136.634
2312428.0,1600928136.67
2312126.0,1600928136.711
2313130.0,1600928136.752
2314350.0,1600928136.791
2316598.0,1600928136.832
2318833.0,1600928136.873
2320497.0,1600928136.912
2322446.0,1600928136.953
2324145.0,1600928136.994
2326523.0,1600928137.031
2328613.0,1600928137.071
2330902.0,1600928137.112
2333161.0,1600928137.151
2335472.0,1600928137.192
2338330.0,1600928137.234
2340440.0,1600928137.272
2343214.0,1600928137.313
2345678.0,1600928137.353
2348225.0,1600928137.389
2350611.0,1600928137.431
2353164.0,1600928137.472
2355617.0,1600928137.511
2356113.0,1600928137.551
2354219.0,1600928137.593
2351115.0,1600928137.632
2349479.0,1600928137.672
2348934.0,1600928137.713
2349390.0,1600928137.752
2350318.0,1600928137.793
2351464.0,1600928137.835
2352980.0,1600928137.871
2353852.0,1600928137.911
2355103.0,1600928137.953
2356498.0,1600928137.992
2358142.0,1600928138.033
2359936.0,1600928138.073
2362055.0,1600928138.113
2364004.0,1600928138.153
2365650.0,1600928138.194
2367781.0,1600928138.232
2369822.0,1600928138.272
2371932.0,1600928138.313
2373802.0,1600928138.352
2375496.0,1600928138.393
2377629.0,1600928138.434
2379539.0,1600928138.473
2379774.0,1600928138.513
2376869.0,1600928138.553
2372834.0,1600928138.592
2369475.0,1600928138.633
2367470.0,1600928138.673
2366529.0,1600928138.712
2366175.0,1600928138.753
2366805.0,1600928138.794
2367473.0,1600928138.834
2367484.0,1600928138.874
2367803.0,1600928138.913
2368791.0,1600928138.952
2369775.0,1600928138.992
2371408.0,1600928139.034
2373044.0,1600928139.073
2374775.0,1600928139.113
2376431.0,1600928139.154
2378571.0,1600928139.193
2380078.0,1600928139.234
2382055.0,1600928139.273
2383936.0,1600928139.312
2385844.0,1600928139.352
2387790.0,1600928139.394
2389640.0,1600928139.434
2387842.0,1600928139.473
2383066.0,1600928139.514
2377316.0,1600928139.554
2373341.0,1600928139.592
2370757.0,1600928139.634
2368895.0,1600928139.672
2368841.0,1600928139.713
2368589.0,1600928139.754
2368547.0,1600928139.834
2368770.0,1600928139.793
2368207.0,1600928139.875
2369096.0,1600928139.913
2370372.0,1600928139.95
2371953.0,1600928139.991
2373611.0,1600928140.031
2375725.0,1600928140.07
2377353.0,1600928140.112
2379269.0,1600928140.152
2381176.0,1600928140.192
2383013.0,1600928140.234
2384432.0,1600928140.272
2386688.0,1600928140.313
2388746.0,1600928140.354
2386347.0,1600928140.393
2379678.0,1600928140.434
2371555.0,1600928140.475
2365090.0,1600928140.514
2360445.0,1600928140.552
2357402.0,1600928140.594
2355837.0,1600928140.633
2355108.0,1600928140.673
2354073.0,1600928140.714
2352747.0,1600928140.754
2353334.0,1600928140.794
2352967.0,1600928140.836
2350910.0,1600928140.874
2350491.0,1600928140.912
2352587.0,1600928140.954
2356004.0,1600928140.993
2359464.0,1600928141.034
2362419.0,1600928141.074
2365847.0,1600928141.114
2368404.0,1600928141.154
2371022.0,1600928141.195
2373843.0,1600928141.235
2375964.0,1600928141.273
2371919.0,1600928141.314
2362824.0,1600928141.353
2354495.0,1600928141.394
2348123.0,1600928141.436
2343515.0,1600928141.474
2340013.0,1600928141.514
2338872.0,1600928141.556
2337763.0,1600928141.593
2336659.0,1600928141.634
2335577.0,1600928141.678
2335403.0,1600928141.717
2335932.0,1600928141.757
2337118.0,1600928141.799
2338707.0,1600928141.838
2340944.0,1600928141.878
2343350.0,1600928141.919
2345764.0,1600928141.958
2348206.0,1600928141.998
2350031.0,1600928142.04
2352349.0,1600928142.078
2354874.0,1600928142.118
2357231.0,1600928142.159
2357146.0,1600928142.198
2349097.0,1600928142.24
2338209.0,1600928142.28
2329044.0,1600928142.319
2322966.0,1600928142.36
2318558.0,1600928142.399
2315955.0,1600928142.439
2315723.0,1600928142.478
2315239.0,1600928142.517
2313942.0,1600928142.557
2313303.0,1600928142.598
2313197.0,1600928142.64
2314618.0,1600928142.678
2318448.0,1600928142.718
2323180.0,1600928142.76
2326637.0,1600928142.799
2329175.0,1600928142.84
2329801.0,1600928142.88
2331220.0,1600928142.92
2334529.0,1600928142.96
2337898.0,1600928143.001
2342455.0,1600928143.039
2346118.0,1600928143.079
2344721.0,1600928143.12
2334821.0,1600928143.159
2323864.0,1600928143.199
2315977.0,1600928143.241
2310813.0,1600928143.28
2307678.0,1600928143.32
2306551.0,1600928143.361
2306809.0,1600928143.398
2306478.0,1600928143.44
2305492.0,1600928143.48
2305230.0,1600928143.519
2306165.0,1600928143.56
2307857.0,1600928143.601
2309745.0,1600928143.641
2312740.0,1600928143.68
2315715.0,1600928143.722
2318487.0,1600928143.759
2320853.0,1600928143.799
2323911.0,1600928143.841
2326787.0,1600928143.879
2329549.0,1600928143.92
2332761.0,1600928143.961
2335631.0,1600928144.0
2331502.0,1600928144.041
2320046.0,1600928144.082
2308509.0,1600928144.119
2300413.0,1600928144.159
2295000.0,1600928144.2
2291401.0,1600928144.24
2290518.0,1600928144.28
2290185.0,1600928144.321
2289108.0,1600928144.36
2288195.0,1600928144.401
2287848.0,1600928144.441
2288465.0,1600928144.479
2289972.0,1600928144.52
2291258.0,1600928144.561
2294261.0,1600928144.6
2298618.0,1600928144.641
2302013.0,1600928144.681
2304415.0,1600928144.721
2307722.0,1600928144.761
2311587.0,1600928144.8
2315239.0,1600928144.84
2318854.0,1600928144.88
2321930.0,1600928144.921
2317501.0,1600928144.96
2305307.0,1600928145.001
2291876.0,1600928145.041
2282688.0,1600928145.077
2276834.0,1600928145.117
2273054.0,1600928145.158
2272126.0,1600928145.197
2271936.0,1600928145.239
2271300.0,1600928145.28
2270080.0,1600928145.319
2269583.0,1600928145.36
2270108.0,1600928145.401
2272005.0,1600928145.441
2274672.0,1600928145.48
2278061.0,1600928145.522
2281484.0,1600928145.561
2285093.0,1600928145.601
2288341.0,1600928145.643
2291249.0,1600928145.679
2294839.0,1600928145.72
2298212.0,1600928145.761
2301861.0,1600928145.8
2304894.0,1600928145.841
2299550.0,1600928145.882
2287527.0,1600928145.921
2275610.0,1600928145.961
2268252.0,1600928146.003
2264094.0,1600928146.04
