bvp,time
-42.56,1708758212.84375
-51.26,1708758212.859375
-59.51,1708758212.875
-65.13,1708758212.890625
-66.32,1708758212.90625
-62.23,1708758212.921875
-53.26,1708758212.9375
-40.99,1708758212.953125
-27.64,1708758212.96875
-15.41,1708758212.984375
-5.92,1708758213.0
0.12,1708758213.015625
2.93,1708758213.03125
3.43,1708758213.046875
2.81,1708758213.0625
2.1,1708758213.078125
1.91,1708758213.09375
2.42,1708758213.109375
3.45,1708758213.125
4.71,1708758213.140625
5.78,1708758213.15625
6.53,1708758213.171875
7.04,1708758213.1875
7.57,1708758213.203125
8.27,1708758213.21875
9.1,1708758213.234375
9.82,1708758213.25
10.17,1708758213.265625
10.02,1708758213.28125
9.05,1708758213.296875
7.24,1708758213.3125
4.85,1708758213.328125
2.13,1708758213.34375
-0.94,1708758213.359375
-4.62,1708758213.375
-9.06,1708758213.390625
-14.18,1708758213.40625
-19.48,1708758213.421875
-24.98,1708758213.4375
-30.35,1708758213.453125
-34.93,1708758213.46875
-38.2,1708758213.484375
-40.32,1708758213.5
-42.06,1708758213.515625
-44.44,1708758213.53125
-48.3,1708758213.546875
-53.74,1708758213.5625
-61.4,1708758213.578125
-70.92,1708758213.59375
-80.89,1708758213.609375
-89.7,1708758213.625
-96.59,1708758213.640625
-101.8,1708758213.65625
-105.81,1708758213.671875
-108.97,1708758213.6875
-110.63,1708758213.703125
-111.31,1708758213.71875
-111.05,1708758213.734375
-109.17,1708758213.75
-104.86,1708758213.765625
-97.82,1708758213.78125
-87.91,1708758213.796875
-74.35,1708758213.8125
-55.91,1708758213.828125
-22.41,1708758213.84375
27.04,1708758213.859375
82.82,1708758213.875
131.68,1708758213.890625
165.45,1708758213.90625
182.38,1708758213.921875
183.85,1708758213.9375
174.87,1708758213.953125
157.7,1708758213.96875
135.76,1708758213.984375
112.61,1708758214.0
93.07,1708758214.015625
82.07,1708758214.03125
82.71,1708758214.046875
94.66,1708758214.0625
113.7,1708758214.078125
131.67,1708758214.09375
137.89,1708758214.109375
124.92,1708758214.125
90.97,1708758214.140625
41.48,1708758214.15625
-13.45,1708758214.171875
-62.8,1708758214.1875
-97.88,1708758214.203125
-114.5,1708758214.21875
-113.27,1708758214.234375
-99.01,1708758214.25
-77.9,1708758214.265625
-56.6,1708758214.28125
-39.58,1708758214.296875
-28.29,1708758214.3125
-21.97,1708758214.328125
-19.28,1708758214.34375
-19.38,1708758214.359375
-21.97,1708758214.375
-26.7,1708758214.390625
-32.21,1708758214.40625
-37.11,1708758214.421875
-40.22,1708758214.4375
-41.05,1708758214.453125
-40.08,1708758214.46875
-38.63,1708758214.484375
-38.29,1708758214.5
-40.1,1708758214.515625
-44.08,1708758214.53125
-48.91,1708758214.546875
-52.92,1708758214.5625
-54.73,1708758214.578125
-53.72,1708758214.59375
-50.12,1708758214.609375
-44.75,1708758214.625
-38.62,1708758214.640625
-32.45,1708758214.65625
-26.72,1708758214.671875
-20.73,1708758214.6875
-13.77,1708758214.703125
-5.55,1708758214.71875
3.59,1708758214.734375
12.93,1708758214.75
21.56,1708758214.765625
28.76,1708758214.78125
34.15,1708758214.796875
37.74,1708758214.8125
39.83,1708758214.828125
40.97,1708758214.84375
41.42,1708758214.859375
41.24,1708758214.875
40.4,1708758214.890625
38.96,1708758214.90625
37.19,1708758214.921875
35.48,1708758214.9375
34.17,1708758214.953125
33.37,1708758214.96875
33.28,1708758214.984375
33.66,1708758215.0
34.14,1708758215.015625
34.39,1708758215.03125
34.37,1708758215.046875
34.29,1708758215.0625
34.61,1708758215.078125
35.82,1708758215.09375
38.51,1708758215.109375
43.66,1708758215.125
51.57,1708758215.140625
61.58,1708758215.15625
71.98,1708758215.171875
80.39,1708758215.1875
84.57,1708758215.203125
83.43,1708758215.21875
77.73,1708758215.234375
66.28,1708758215.25
51.18,1708758215.265625
35.19,1708758215.28125
20.57,1708758215.296875
8.43,1708758215.3125
-1.14,1708758215.328125
-8.59,1708758215.34375
-14.35,1708758215.359375
-18.75,1708758215.375
-22.16,1708758215.390625
-24.63,1708758215.40625
-26.75,1708758215.421875
-29.24,1708758215.4375
-32.55,1708758215.453125
-36.47,1708758215.46875
-40.38,1708758215.484375
-43.44,1708758215.5
-45.21,1708758215.515625
-45.86,1708758215.53125
-45.73,1708758215.546875
-45.67,1708758215.5625
-46.49,1708758215.578125
-48.59,1708758215.59375
-51.71,1708758215.609375
-55.17,1708758215.625
-58.2,1708758215.640625
-60.38,1708758215.65625
-61.86,1708758215.671875
-63.07,1708758215.6875
-64.89,1708758215.703125
-68.22,1708758215.71875
-73.53,1708758215.734375
-80.6,1708758215.75
-88.28,1708758215.765625
-94.75,1708758215.78125
-97.88,1708758215.796875
-95.82,1708758215.8125
-87.51,1708758215.828125
-73.11,1708758215.84375
-54.01,1708758215.859375
-32.41,1708758215.875
-10.73,1708758215.890625
8.97,1708758215.90625
25.33,1708758215.921875
37.84,1708758215.9375
46.68,1708758215.953125
52.45,1708758215.96875
55.86,1708758215.984375
57.51,1708758216.0
57.82,1708758216.015625
57.12,1708758216.03125
55.67,1708758216.046875
53.84,1708758216.0625
51.96,1708758216.078125
50.34,1708758216.09375
49.07,1708758216.109375
48.02,1708758216.125
46.99,1708758216.140625
45.83,1708758216.15625
44.66,1708758216.171875
43.76,1708758216.1875
43.53,1708758216.203125
44.14,1708758216.21875
45.32,1708758216.234375
46.4,1708758216.25
46.51,1708758216.265625
44.98,1708758216.28125
41.65,1708758216.296875
36.95,1708758216.3125
31.71,1708758216.328125
26.81,1708758216.34375
22.72,1708758216.359375
19.41,1708758216.375
16.34,1708758216.390625
12.84,1708758216.40625
8.41,1708758216.421875
2.96,1708758216.4375
-3.12,1708758216.453125
-9.2,1708758216.46875
-14.71,1708758216.484375
-19.35,1708758216.5
-23.22,1708758216.515625
-26.82,1708758216.53125
-30.84,1708758216.546875
-35.99,1708758216.5625
-42.84,1708758216.578125
-51.54,1708758216.59375
-61.65,1708758216.609375
-72.04,1708758216.625
-81.04,1708758216.640625
-86.68,1708758216.65625
-87.26,1708758216.671875
-81.92,1708758216.6875
-70.92,1708758216.703125
-55.61,1708758216.71875
-37.94,1708758216.734375
-19.92,1708758216.75
-3.06,1708758216.765625
11.77,1708758216.78125
24.26,1708758216.796875
34.43,1708758216.8125
42.4,1708758216.828125
48.35,1708758216.84375
52.59,1708758216.859375
55.68,1708758216.875
58.35,1708758216.890625
61.39,1708758216.90625
65.38,1708758216.921875
70.36,1708758216.9375
75.78,1708758216.953125
80.54,1708758216.96875
83.31,1708758216.984375
82.96,1708758217.0
78.97,1708758217.015625
71.6,1708758217.03125
61.9,1708758217.046875
51.44,1708758217.0625
41.88,1708758217.078125
34.59,1708758217.09375
30.37,1708758217.109375
29.18,1708758217.125
30.15,1708758217.140625
31.78,1708758217.15625
32.21,1708758217.171875
29.79,1708758217.1875
23.45,1708758217.203125
13.07,1708758217.21875
-0.5,1708758217.234375
-15.68,1708758217.25
-30.7,1708758217.265625
-44.08,1708758217.28125
-54.85,1708758217.296875
-62.62,1708758217.3125
-67.43,1708758217.328125
-69.59,1708758217.34375
-69.72,1708758217.359375
-68.63,1708758217.375
-67.22,1708758217.390625
-66.21,1708758217.40625
-65.9,1708758217.421875
-66.18,1708758217.4375
-66.83,1708758217.453125
-67.93,1708758217.46875
-70.0,1708758217.484375
-73.75,1708758217.5
-79.36,1708758217.515625
-85.9,1708758217.53125
-91.24,1708758217.546875
-92.69,1708758217.5625
-88.05,1708758217.578125
-76.61,1708758217.59375
-59.44,1708758217.609375
-38.89,1708758217.625
-17.63,1708758217.640625
2.27,1708758217.65625
19.72,1708758217.671875
34.51,1708758217.6875
46.91,1708758217.703125
57.12,1708758217.71875
65.23,1708758217.734375
71.14,1708758217.75
74.89,1708758217.765625
76.75,1708758217.78125
77.27,1708758217.796875
77.02,1708758217.8125
76.42,1708758217.828125
75.48,1708758217.84375
73.9,1708758217.859375
71.29,1708758217.875
67.48,1708758217.890625
62.81,1708758217.90625
58.02,1708758217.921875
53.92,1708758217.9375
51.08,1708758217.953125
49.54,1708758217.96875
48.84,1708758217.984375
48.25,1708758218.0
47.12,1708758218.015625
45.08,1708758218.03125
42.05,1708758218.046875
38.18,1708758218.0625
33.64,1708758218.078125
28.58,1708758218.09375
23.14,1708758218.109375
17.45,1708758218.125
11.69,1708758218.140625
6.02,1708758218.15625
0.51,1708758218.171875
-4.84,1708758218.1875
-10.18,1708758218.203125
-15.63,1708758218.21875
-21.24,1708758218.234375
-26.94,1708758218.25
-32.56,1708758218.265625
-37.98,1708758218.28125
-43.15,1708758218.296875
-48.19,1708758218.3125
-53.37,1708758218.328125
-59.07,1708758218.34375
-65.65,1708758218.359375
-73.27,1708758218.375
-81.73,1708758218.390625
-90.31,1708758218.40625
-97.74,1708758218.421875
-102.42,1708758218.4375
-102.78,1708758218.453125
-97.71,1708758218.46875
-86.93,1708758218.484375
-71.19,1708758218.5
-52.03,1708758218.515625
-31.53,1708758218.53125
-11.77,1708758218.546875
5.6,1708758218.5625
19.51,1708758218.578125
29.63,1708758218.59375
36.22,1708758218.609375
39.88,1708758218.625
41.37,1708758218.640625
41.36,1708758218.65625
40.38,1708758218.671875
38.79,1708758218.6875
36.83,1708758218.703125
34.69,1708758218.71875
32.53,1708758218.734375
30.48,1708758218.75
28.68,1708758218.765625
27.3,1708758218.78125
26.5,1708758218.796875
26.36,1708758218.8125
26.89,1708758218.828125
27.87,1708758218.84375
28.93,1708758218.859375
29.66,1708758218.875
29.67,1708758218.890625
28.78,1708758218.90625
27.0,1708758218.921875
24.44,1708758218.9375
21.26,1708758218.953125
17.56,1708758218.96875
13.38,1708758218.984375
8.7,1708758219.0
3.56,1708758219.015625
-1.93,1708758219.03125
-7.59,1708758219.046875
-13.17,1708758219.0625
-18.42,1708758219.078125
-23.22,1708758219.09375
-27.53,1708758219.109375
-31.53,1708758219.125
-35.61,1708758219.140625
-40.31,1708758219.15625
-46.19,1708758219.171875
-53.51,1708758219.1875
-61.93,1708758219.203125
-70.33,1708758219.21875
-76.95,1708758219.234375
-79.79,1708758219.25
-77.22,1708758219.265625
-68.52,1708758219.28125
-54.17,1708758219.296875
-35.68,1708758219.3125
-15.2,1708758219.328125
5.08,1708758219.34375
23.38,1708758219.359375
38.63,1708758219.375
50.41,1708758219.390625
58.84,1708758219.40625
64.32,1708758219.421875
67.4,1708758219.4375
68.6,1708758219.453125
68.38,1708758219.46875
67.17,1708758219.484375
65.32,1708758219.5
63.24,1708758219.515625
61.25,1708758219.53125
59.6,1708758219.546875
58.34,1708758219.5625
57.43,1708758219.578125
56.68,1708758219.59375
55.94,1708758219.609375
55.13,1708758219.625
54.16,1708758219.640625
52.92,1708758219.65625
51.21,1708758219.671875
48.76,1708758219.6875
45.35,1708758219.703125
40.94,1708758219.71875
35.69,1708758219.734375
29.94,1708758219.75
23.99,1708758219.765625
17.96,1708758219.78125
11.79,1708758219.796875
5.28,1708758219.8125
-1.68,1708758219.828125
-8.99,1708758219.84375
-16.37,1708758219.859375
-23.47,1708758219.875
-30.15,1708758219.890625
-36.54,1708758219.90625
-43.1,1708758219.921875
-50.42,1708758219.9375
-58.99,1708758219.953125
-68.84,1708758219.96875
-79.37,1708758219.984375
-89.29,1708758220.0
-96.82,1708758220.015625
-100.1,1708758220.03125
-97.66,1708758220.046875
-88.87,1708758220.0625
-74.17,1708758220.078125
-55.0,1708758220.09375
-33.46,1708758220.109375
-11.9,1708758220.125
7.63,1708758220.140625
23.7,1708758220.15625
35.71,1708758220.171875
43.9,1708758220.1875
49.01,1708758220.203125
52.02,1708758220.21875
53.74,1708758220.234375
54.67,1708758220.25
55.0,1708758220.265625
54.76,1708758220.28125
54.11,1708758220.296875
53.35,1708758220.3125
52.87,1708758220.328125
53.01,1708758220.34375
53.81,1708758220.359375
55.1,1708758220.375
56.56,1708758220.390625
57.89,1708758220.40625
58.99,1708758220.421875
59.85,1708758220.4375
60.49,1708758220.453125
60.83,1708758220.46875
60.61,1708758220.484375
59.51,1708758220.5
57.25,1708758220.515625
53.76,1708758220.53125
49.21,1708758220.546875
43.98,1708758220.5625
38.46,1708758220.578125
32.96,1708758220.59375
27.58,1708758220.609375
22.25,1708758220.625
16.84,1708758220.640625
11.28,1708758220.65625
5.65,1708758220.671875
0.19,1708758220.6875
-4.87,1708758220.703125
-9.43,1708758220.71875
-13.59,1708758220.734375
-17.7,1708758220.75
-22.19,1708758220.765625
-27.37,1708758220.78125
-33.34,1708758220.796875
-39.85,1708758220.8125
-46.45,1708758220.828125
-52.65,1708758220.84375
-58.17,1708758220.859375
-63.04,1708758220.875
-67.73,1708758220.890625
-72.97,1708758220.90625
-79.49,1708758220.921875
-87.72,1708758220.9375
-97.43,1708758220.953125
-107.59,1708758220.96875
-116.41,1708758220.984375
-121.79,1708758221.0
-121.79,1708758221.015625
-115.3,1708758221.03125
-102.32,1708758221.046875
-84.04,1708758221.0625
-62.56,1708758221.078125
-40.29,1708758221.09375
-19.45,1708758221.109375
-1.53,1708758221.125
12.82,1708758221.140625
23.72,1708758221.15625
31.82,1708758221.171875
37.91,1708758221.1875
42.65,1708758221.203125
46.4,1708758221.21875
49.28,1708758221.234375
51.23,1708758221.25
52.28,1708758221.265625
52.58,1708758221.28125
52.41,1708758221.296875
52.13,1708758221.3125
52.01,1708758221.328125
52.16,1708758221.34375
52.59,1708758221.359375
53.23,1708758221.375
54.06,1708758221.390625
55.06,1708758221.40625
56.24,1708758221.421875
57.43,1708758221.4375
58.33,1708758221.453125
58.46,1708758221.46875
57.38,1708758221.484375
54.87,1708758221.5
51.11,1708758221.515625
46.6,1708758221.53125
42.04,1708758221.546875
37.96,1708758221.5625
34.55,1708758221.578125
31.59,1708758221.59375
28.58,1708758221.609375
25.04,1708758221.625
20.75,1708758221.640625
15.83,1708758221.65625
10.62,1708758221.671875
5.52,1708758221.6875
0.75,1708758221.703125
-3.72,1708758221.71875
-8.07,1708758221.734375
-12.57,1708758221.75
-17.41,1708758221.765625
-22.67,1708758221.78125
-28.26,1708758221.796875
-34.03,1708758221.8125
-39.8,1708758221.828125
-45.41,1708758221.84375
-50.71,1708758221.859375
-55.66,1708758221.875
-60.42,1708758221.890625
-65.38,1708758221.90625
-71.1,1708758221.921875
-78.18,1708758221.9375
-86.85,1708758221.953125
-96.71,1708758221.96875
-106.53,1708758221.984375
-114.35,1708758222.0
-117.96,1708758222.015625
-115.52,1708758222.03125
-106.14,1708758222.046875
-90.27,1708758222.0625
-69.53,1708758222.078125
-46.29,1708758222.09375
-23.0,1708758222.109375
-1.68,1708758222.125
16.45,1708758222.140625
30.93,1708758222.15625
41.88,1708758222.171875
49.7,1708758222.1875
54.92,1708758222.203125
58.06,1708758222.21875
59.68,1708758222.234375
60.35,1708758222.25
60.57,1708758222.265625
60.79,1708758222.28125
61.26,1708758222.296875
62.09,1708758222.3125
63.27,1708758222.328125
64.73,1708758222.34375
66.43,1708758222.359375
68.3,1708758222.375
70.24,1708758222.390625
72.07,1708758222.40625
73.53,1708758222.421875
74.36,1708758222.4375
74.34,1708758222.453125
73.35,1708758222.46875
71.37,1708758222.484375
68.41,1708758222.5
64.51,1708758222.515625
59.69,1708758222.53125
54.07,1708758222.546875
47.83,1708758222.5625
41.3,1708758222.578125
34.9,1708758222.59375
28.96,1708758222.609375
23.64,1708758222.625
18.81,1708758222.640625
14.08,1708758222.65625
9.02,1708758222.671875
3.32,1708758222.6875
-3.01,1708758222.703125
-9.66,1708758222.71875
-16.16,1708758222.734375
-22.12,1708758222.75
-27.38,1708758222.765625
-32.1,1708758222.78125
-36.66,1708758222.796875
-41.52,1708758222.8125
-47.12,1708758222.828125
-53.78,1708758222.84375
-61.68,1708758222.859375
-70.71,1708758222.875
-80.34,1708758222.890625
-89.5,1708758222.90625
-96.59,1708758222.921875
-99.85,1708758222.9375
-97.78,1708758222.953125
-89.74,1708758222.96875
-76.17,1708758222.984375
-58.51,1708758223.0
-38.85,1708758223.015625
-19.28,1708758223.03125
-1.53,1708758223.046875
13.38,1708758223.0625
25.08,1708758223.078125
33.75,1708758223.09375
39.84,1708758223.109375
43.9,1708758223.125
46.44,1708758223.140625
47.89,1708758223.15625
48.54,1708758223.171875
48.64,1708758223.1875
48.33,1708758223.203125
47.76,1708758223.21875
47.09,1708758223.234375
46.45,1708758223.25
46.01,1708758223.265625
45.94,1708758223.28125
46.34,1708758223.296875
47.24,1708758223.3125
48.52,1708758223.328125
49.91,1708758223.34375
51.03,1708758223.359375
51.49,1708758223.375
51.0,1708758223.390625
49.44,1708758223.40625
46.86,1708758223.421875
43.44,1708758223.4375
39.4,1708758223.453125
34.99,1708758223.46875
30.42,1708758223.484375
25.82,1708758223.5
21.21,1708758223.515625
16.56,1708758223.53125
11.79,1708758223.546875
6.84,1708758223.5625
1.74,1708758223.578125
-3.43,1708758223.59375
-8.58,1708758223.609375
-13.69,1708758223.625
-18.83,1708758223.640625
-24.11,1708758223.65625
-29.6,1708758223.671875
-35.22,1708758223.6875
-40.77,1708758223.703125
-46.02,1708758223.71875
-50.82,1708758223.734375
-55.24,1708758223.75
-59.67,1708758223.765625
-64.74,1708758223.78125
-71.07,1708758223.796875
-78.97,1708758223.8125
-88.14,1708758223.828125
-97.47,1708758223.84375
-105.21,1708758223.859375
-109.41,1708758223.875
-108.45,1708758223.890625
-101.61,1708758223.90625
-89.28,1708758223.921875
-72.82,1708758223.9375
-54.19,1708758223.953125
-35.43,1708758223.96875
-18.2,1708758223.984375
-3.62,1708758224.0
7.88,1708758224.015625
16.42,1708758224.03125
22.53,1708758224.046875
26.9,1708758224.0625
30.18,1708758224.078125
32.84,1708758224.09375
35.11,1708758224.109375
37.06,1708758224.125
38.67,1708758224.140625
39.95,1708758224.15625
40.91,1708758224.171875
41.53,1708758224.1875
41.84,1708758224.203125
41.86,1708758224.21875
41.7,1708758224.234375
41.57,1708758224.25
41.66,1708758224.265625
42.02,1708758224.28125
42.49,1708758224.296875
42.67,1708758224.3125
42.11,1708758224.328125
40.53,1708758224.34375
37.87,1708758224.359375
34.34,1708758224.375
30.29,1708758224.390625
26.1,1708758224.40625
21.98,1708758224.421875
18.03,1708758224.4375
14.2,1708758224.453125
10.37,1708758224.46875
6.38,1708758224.484375
2.16,1708758224.5
-2.28,1708758224.515625
-6.81,1708758224.53125
-11.26,1708758224.546875
-15.45,1708758224.5625
-19.38,1708758224.578125
-23.16,1708758224.59375
-27.05,1708758224.609375
-31.26,1708758224.625
-35.91,1708758224.640625
-40.9,1708758224.65625
-45.99,1708758224.671875
-50.9,1708758224.6875
-55.49,1708758224.703125
-59.85,1708758224.71875
-64.33,1708758224.734375
-69.47,1708758224.75
-75.82,1708758224.765625
-83.67,1708758224.78125
-92.82,1708758224.796875
-102.45,1708758224.8125
-111.08,1708758224.828125
-116.89,1708758224.84375
-118.11,1708758224.859375
-113.57,1708758224.875
-103.08,1708758224.890625
-87.49,1708758224.90625
-68.51,1708758224.921875
-48.25,1708758224.9375
-28.7,1708758224.953125
-11.32,1708758224.96875
3.13,1708758224.984375
14.5,1708758225.0
23.1,1708758225.015625
29.42,1708758225.03125
33.96,1708758225.046875
37.17,1708758225.0625
39.38,1708758225.078125
40.87,1708758225.09375
41.88,1708758225.109375
42.58,1708758225.125
43.08,1708758225.140625
43.48,1708758225.15625
43.84,1708758225.171875
44.27,1708758225.1875
44.92,1708758225.203125
45.96,1708758225.21875
47.44,1708758225.234375
49.31,1708758225.25
51.31,1708758225.265625
53.12,1708758225.28125
54.39,1708758225.296875
54.85,1708758225.3125
54.3,1708758225.328125
52.64,1708758225.34375
49.84,1708758225.359375
45.98,1708758225.375
41.29,1708758225.390625
36.14,1708758225.40625
30.95,1708758225.421875
26.09,1708758225.4375
21.71,1708758225.453125
17.66,1708758225.46875
13.57,1708758225.484375
8.99,1708758225.5
3.59,1708758225.515625
-2.65,1708758225.53125
-9.41,1708758225.546875
-16.15,1708758225.5625
-22.35,1708758225.578125
-27.72,1708758225.59375
-32.34,1708758225.609375
-36.71,1708758225.625
-41.57,1708758225.640625
-47.63,1708758225.65625
-55.35,1708758225.671875
-64.71,1708758225.6875
-75.0,1708758225.703125
-84.95,1708758225.71875
-92.81,1708758225.734375
-96.78,1708758225.75
-95.39,1708758225.765625
-87.95,1708758225.78125
-74.77,1708758225.796875
-57.13,1708758225.8125
-36.93,1708758225.828125
-16.29,1708758225.84375
2.95,1708758225.859375
19.51,1708758225.875
32.88,1708758225.890625
43.14,1708758225.90625
50.75,1708758225.921875
56.28,1708758225.9375
60.19,1708758225.953125
62.75,1708758225.96875
64.16,1708758225.984375
64.59,1708758226.0
64.32,1708758226.015625
63.65,1708758226.03125
62.85,1708758226.046875
62.01,1708758226.0625
61.14,1708758226.078125
60.13,1708758226.09375
58.96,1708758226.109375
57.72,1708758226.125
56.59,1708758226.140625
55.69,1708758226.15625
54.97,1708758226.171875
54.16,1708758226.1875
52.86,1708758226.203125
50.65,1708758226.21875
47.32,1708758226.234375
42.89,1708758226.25
37.66,1708758226.265625
32.02,1708758226.28125
26.39,1708758226.296875
21.02,1708758226.3125
15.96,1708758226.328125
11.06,1708758226.34375
6.08,1708758226.359375
0.74,1708758226.375
-5.14,1708758226.390625
-11.63,1708758226.40625
-18.66,1708758226.421875
-26.0,1708758226.4375
-33.34,1708758226.453125
-40.28,1708758226.46875
-46.55,1708758226.484375
-52.05,1708758226.5
-56.94,1708758226.515625
-61.7,1708758226.53125
-67.01,1708758226.546875
-73.52,1708758226.5625
-81.63,1708758226.578125
-91.17,1708758226.59375
-101.21,1708758226.609375
-110.12,1708758226.625
-115.85,1708758226.640625
-116.53,1708758226.65625
-110.97,1708758226.671875
-99.09,1708758226.6875
-81.96,1708758226.703125
-61.56,1708758226.71875
-40.21,1708758226.734375
-20.07,1708758226.75
-2.65,1708758226.765625
11.38,1708758226.78125
22.11,1708758226.796875
30.22,1708758226.8125
36.55,1708758226.828125
41.82,1708758226.84375
46.45,1708758226.859375
50.45,1708758226.875
53.63,1708758226.890625
55.77,1708758226.90625
56.81,1708758226.921875
56.92,1708758226.9375
56.45,1708758226.953125
55.83,1708758226.96875
55.42,1708758226.984375
55.43,1708758227.0
55.92,1708758227.015625
56.81,1708758227.03125
57.85,1708758227.046875
58.74,1708758227.0625
59.13,1708758227.078125
58.7,1708758227.09375
57.27,1708758227.109375
54.79,1708758227.125
51.39,1708758227.140625
47.31,1708758227.15625
42.75,1708758227.171875
37.89,1708758227.1875
32.8,1708758227.203125
27.55,1708758227.21875
22.17,1708758227.234375
16.75,1708758227.25
11.41,1708758227.265625
6.21,1708758227.28125
1.12,1708758227.296875
-3.94,1708758227.3125
-9.07,1708758227.328125
-14.36,1708758227.34375
-19.83,1708758227.359375
-25.42,1708758227.375
-31.03,1708758227.390625
-36.59,1708758227.40625
-42.02,1708758227.421875
-47.32,1708758227.4375
-52.56,1708758227.453125
-57.96,1708758227.46875
-63.89,1708758227.484375
-70.83,1708758227.5
-79.22,1708758227.515625
-89.16,1708758227.53125
-100.1,1708758227.546875
-110.78,1708758227.5625
-119.28,1708758227.578125
-123.52,1708758227.59375
-121.82,1708758227.609375
-113.45,1708758227.625
-98.9,1708758227.640625
-79.76,1708758227.65625
-58.3,1708758227.671875
-36.83,1708758227.6875
-17.23,1708758227.703125
-0.64,1708758227.71875
12.56,1708758227.734375
22.56,1708758227.75
29.9,1708758227.765625
35.2,1708758227.78125
39.06,1708758227.796875
41.92,1708758227.8125
44.04,1708758227.828125
45.58,1708758227.84375
46.58,1708758227.859375
47.09,1708758227.875
47.22,1708758227.890625
47.16,1708758227.90625
47.18,1708758227.921875
47.52,1708758227.9375
48.36,1708758227.953125
49.71,1708758227.96875
51.45,1708758227.984375
53.3,1708758228.0
54.92,1708758228.015625
55.95,1708758228.03125
56.08,1708758228.046875
55.12,1708758228.0625
53.02,1708758228.078125
49.94,1708758228.09375
46.16,1708758228.109375
42.03,1708758228.125
37.77,1708758228.140625
33.46,1708758228.15625
28.99,1708758228.171875
24.18,1708758228.1875
18.96,1708758228.203125
13.41,1708758228.21875
7.76,1708758228.234375
2.23,1708758228.25
-3.07,1708758228.265625
-8.24,1708758228.28125
-13.52,1708758228.296875
-19.15,1708758228.3125
-25.21,1708758228.328125
-31.61,1708758228.34375
-38.11,1708758228.359375
-44.52,1708758228.375
-50.76,1708758228.390625
-56.94,1708758228.40625
-63.38,1708758228.421875
-70.49,1708758228.4375
-78.67,1708758228.453125
-88.06,1708758228.46875
-98.3,1708758228.484375
-108.42,1708758228.5
-116.81,1708758228.515625
-121.6,1708758228.53125
-121.14,1708758228.546875
-114.52,1708758228.5625
-101.89,1708758228.578125
-84.38,1708758228.59375
-63.79,1708758228.609375
-42.09,1708758228.625
-20.99,1708758228.640625
-1.77,1708758228.65625
14.8,1708758228.671875
28.44,1708758228.6875
39.27,1708758228.703125
47.75,1708758228.71875
54.43,1708758228.734375
59.72,1708758228.75
63.69,1708758228.765625
66.11,1708758228.78125
66.71,1708758228.796875
65.44,1708758228.8125
62.79,1708758228.828125
59.61,1708758228.84375
56.91,1708758228.859375
55.39,1708758228.875
55.34,1708758228.890625
56.58,1708758228.90625
58.66,1708758228.921875
61.05,1708758228.9375
63.22,1708758228.953125
64.71,1708758228.96875
65.09,1708758228.984375
64.04,1708758229.0
61.53,1708758229.015625
57.76,1708758229.03125
53.2,1708758229.046875
48.41,1708758229.0625
43.79,1708758229.078125
39.6,1708758229.09375
35.85,1708758229.109375
32.47,1708758229.125
29.32,1708758229.140625
26.25,1708758229.15625
23.04,1708758229.171875
19.49,1708758229.1875
15.38,1708758229.203125
10.66,1708758229.21875
5.43,1708758229.234375
-0.07,1708758229.25
-5.61,1708758229.265625
-11.08,1708758229.28125
-16.54,1708758229.296875
-22.24,1708758229.3125
-28.51,1708758229.328125
-35.61,1708758229.34375
-43.75,1708758229.359375
-53.0,1708758229.375
-63.19,1708758229.390625
-73.79,1708758229.40625
-83.78,1708758229.421875
-91.58,1708758229.4375
-95.39,1708758229.453125
-93.63,1708758229.46875
-85.54,1708758229.484375
-71.59,1708758229.5
-53.44,1708758229.515625
-33.47,1708758229.53125
-14.11,1708758229.546875
2.82,1708758229.5625
16.49,1708758229.578125
26.98,1708758229.59375
34.93,1708758229.609375
41.07,1708758229.625
45.94,1708758229.640625
49.69,1708758229.65625
52.32,1708758229.671875
53.82,1708758229.6875
54.39,1708758229.703125
54.38,1708758229.71875
54.23,1708758229.734375
54.24,1708758229.75
54.52,1708758229.765625
54.95,1708758229.78125
55.35,1708758229.796875
55.61,1708758229.8125
55.78,1708758229.828125
55.96,1708758229.84375
56.31,1708758229.859375
56.8,1708758229.875
57.21,1708758229.890625
57.19,1708758229.90625
56.38,1708758229.921875
54.5,1708758229.9375
51.53,1708758229.953125
47.62,1708758229.96875
43.06,1708758229.984375
38.22,1708758230.0
33.4,1708758230.015625
28.78,1708758230.03125
24.4,1708758230.046875
20.12,1708758230.0625
15.77,1708758230.078125
11.17,1708758230.09375
6.32,1708758230.109375
1.36,1708758230.125
-3.44,1708758230.140625
-7.88,1708758230.15625
-11.89,1708758230.171875
-15.68,1708758230.1875
-19.64,1708758230.203125
-24.14,1708758230.21875
-29.33,1708758230.234375
-35.08,1708758230.25
-41.0,1708758230.265625
-46.68,1708758230.28125
-51.86,1708758230.296875
-56.57,1708758230.3125
-61.11,1708758230.328125
-65.93,1708758230.34375
-71.52,1708758230.359375
-78.24,1708758230.375
-86.27,1708758230.390625
-95.41,1708758230.40625
-104.93,1708758230.421875
-113.54,1708758230.4375
-119.49,1708758230.453125
-120.99,1708758230.46875
-116.75,1708758230.484375
-106.45,1708758230.5
-90.97,1708758230.515625
-72.16,1708758230.53125
-52.32,1708758230.546875
-33.59,1708758230.5625
-17.42,1708758230.578125
-4.4,1708758230.59375
5.57,1708758230.609375
13.04,1708758230.625
18.64,1708758230.640625
22.89,1708758230.65625
26.15,1708758230.671875
28.6,1708758230.6875
30.41,1708758230.703125
31.7,1708758230.71875
32.66,1708758230.734375
33.48,1708758230.75
34.31,1708758230.765625
35.26,1708758230.78125
36.4,1708758230.796875
37.76,1708758230.8125
39.32,1708758230.828125
41.09,1708758230.84375
42.98,1708758230.859375
44.82,1708758230.875
46.41,1708758230.890625
47.54,1708758230.90625
48.0,1708758230.921875
47.66,1708758230.9375
46.51,1708758230.953125
44.6,1708758230.96875
42.13,1708758230.984375
39.32,1708758231.0
36.46,1708758231.015625
33.72,1708758231.03125
31.1,1708758231.046875
28.44,1708758231.0625
25.5,1708758231.078125
22.12,1708758231.09375
18.36,1708758231.109375
14.49,1708758231.125
10.85,1708758231.140625
7.63,1708758231.15625
4.77,1708758231.171875
1.9,1708758231.1875
-1.43,1708758231.203125
-5.53,1708758231.21875
-10.45,1708758231.234375
-15.96,1708758231.25
-21.72,1708758231.265625
-27.4,1708758231.28125
-32.81,1708758231.296875
-37.9,1708758231.3125
-42.82,1708758231.328125
-47.85,1708758231.34375
-53.36,1708758231.359375
-59.78,1708758231.375
-67.36,1708758231.390625
-75.92,1708758231.40625
-84.71,1708758231.421875
-92.34,1708758231.4375
-97.06,1708758231.453125
-97.21,1708758231.46875
-91.74,1708758231.484375
-80.56,1708758231.5
-64.69,1708758231.515625
-45.96,1708758231.53125
-26.5,1708758231.546875
-8.29,1708758231.5625
7.32,1708758231.578125
19.68,1708758231.59375
28.78,1708758231.609375
35.08,1708758231.625
39.2,1708758231.640625
41.72,1708758231.65625
43.14,1708758231.671875
43.85,1708758231.6875
44.14,1708758231.703125
44.25,1708758231.71875
44.39,1708758231.734375
44.66,1708758231.75
45.12,1708758231.765625
45.7,1708758231.78125
46.36,1708758231.796875
47.09,1708758231.8125
47.97,1708758231.828125
49.11,1708758231.84375
50.51,1708758231.859375
52.01,1708758231.875
53.22,1708758231.890625
53.67,1708758231.90625
53.0,1708758231.921875
51.11,1708758231.9375
48.23,1708758231.953125
44.82,1708758231.96875
41.39,1708758231.984375
38.25,1708758232.0
35.49,1708758232.015625
32.9,1708758232.03125
30.2,1708758232.046875
27.13,1708758232.0625
23.56,1708758232.078125
19.54,1708758232.09375
15.23,1708758232.109375
10.85,1708758232.125
6.54,1708758232.140625
2.3,1708758232.15625
-1.93,1708758232.171875
-6.3,1708758232.1875
-10.9,1708758232.203125
-15.74,1708758232.21875
-20.72,1708758232.234375
-25.72,1708758232.25
-30.61,1708758232.265625
-35.33,1708758232.28125
-39.9,1708758232.296875
-44.47,1708758232.3125
-49.32,1708758232.328125
-54.79,1708758232.34375
-61.2,1708758232.359375
-68.67,1708758232.375
-76.83,1708758232.390625
-84.77,1708758232.40625
-91.08,1708758232.421875
-94.16,1708758232.4375
-92.65,1708758232.453125
-85.82,1708758232.46875
-73.86,1708758232.484375
-57.86,1708758232.5
-39.54,1708758232.515625
-20.86,1708758232.53125
-3.55,1708758232.546875
11.18,1708758232.5625
22.85,1708758232.578125
31.58,1708758232.59375
37.92,1708758232.609375
42.56,1708758232.625
46.11,1708758232.640625
48.99,1708758232.65625
51.48,1708758232.671875
53.8,1708758232.6875
56.03,1708758232.703125
58.12,1708758232.71875
59.76,1708758232.734375
60.55,1708758232.75
60.22,1708758232.765625
58.85,1708758232.78125
57.0,1708758232.796875
55.47,1708758232.8125
54.93,1708758232.828125
55.58,1708758232.84375
57.06,1708758232.859375
58.6,1708758232.875
59.47,1708758232.890625
59.22,1708758232.90625
57.76,1708758232.921875
55.26,1708758232.9375
51.87,1708758232.953125
47.59,1708758232.96875
42.3,1708758232.984375
35.86,1708758233.0
28.22,1708758233.015625
19.56,1708758233.03125
10.24,1708758233.046875
0.79,1708758233.0625
-8.17,1708758233.078125
-16.05,1708758233.09375
-22.45,1708758233.109375
-27.22,1708758233.125
-30.56,1708758233.140625
-32.87,1708758233.15625
-34.59,1708758233.171875
-36.1,1708758233.1875
-37.68,1708758233.203125
-39.56,1708758233.21875
-42.0,1708758233.234375
-45.36,1708758233.25
-50.0,1708758233.265625
-56.22,1708758233.28125
-64.27,1708758233.296875
-74.38,1708758233.3125
-86.92,1708758233.328125
-102.27,1708758233.34375
-120.55,1708758233.359375
-141.23,1708758233.375
-162.91,1708758233.390625
-183.41,1708758233.40625
-200.28,1708758233.421875
-211.42,1708758233.4375
-215.49,1708758233.453125
-212.19,1708758233.46875
-202.05,1708758233.484375
-186.11,1708758233.5
-165.71,1708758233.515625
-142.25,1708758233.53125
-117.11,1708758233.546875
-91.47,1708758233.5625
-66.15,1708758233.578125
-41.37,1708758233.59375
-16.86,1708758233.609375
8.0,1708758233.625
33.65,1708758233.640625
59.92,1708758233.65625
85.69,1708758233.671875
109.03,1708758233.6875
127.66,1708758233.703125
139.79,1708758233.71875
144.85,1708758233.734375
143.9,1708758233.75
139.37,1708758233.765625
134.27,1708758233.78125
131.11,1708758233.796875
131.14,1708758233.8125
134.12,1708758233.828125
138.62,1708758233.84375
142.79,1708758233.859375
145.04,1708758233.875
144.36,1708758233.890625
140.47,1708758233.90625
133.61,1708758233.921875
124.41,1708758233.9375
113.73,1708758233.953125
102.61,1708758233.96875
92.19,1708758233.984375
83.49,1708758234.0
77.18,1708758234.015625
73.41,1708758234.03125
71.7,1708758234.046875
71.14,1708758234.0625
70.68,1708758234.078125
69.44,1708758234.09375
66.97,1708758234.109375
63.25,1708758234.125
58.56,1708758234.140625
53.27,1708758234.15625
47.58,1708758234.171875
41.5,1708758234.1875
34.92,1708758234.203125
27.76,1708758234.21875
20.1,1708758234.234375
12.21,1708758234.25
4.41,1708758234.265625
-3.12,1708758234.28125
-10.49,1708758234.296875
-18.1,1708758234.3125
-26.5,1708758234.328125
-36.1,1708758234.34375
-46.86,1708758234.359375
-58.05,1708758234.375
-68.34,1708758234.390625
-76.1,1708758234.40625
-79.89,1708758234.421875
-78.97,1708758234.4375
-73.49,1708758234.453125
-64.48,1708758234.46875
-53.46,1708758234.484375
-42.01,1708758234.5
-31.3,1708758234.515625
-21.94,1708758234.53125
-14.03,1708758234.546875
-7.4,1708758234.5625
-1.83,1708758234.578125
2.7,1708758234.59375
6.11,1708758234.609375
8.32,1708758234.625
9.39,1708758234.640625
9.6,1708758234.65625
9.4,1708758234.671875
9.23,1708758234.6875
9.34,1708758234.703125
9.79,1708758234.71875
10.45,1708758234.734375
11.16,1708758234.75
11.8,1708758234.765625
12.31,1708758234.78125
12.63,1708758234.796875
12.63,1708758234.8125
12.07,1708758234.828125
10.68,1708758234.84375
8.33,1708758234.859375
5.06,1708758234.875
1.05,1708758234.890625
-3.34,1708758234.90625
-7.76,1708758234.921875
-11.93,1708758234.9375
-15.62,1708758234.953125
-18.73,1708758234.96875
-21.31,1708758234.984375
-23.62,1708758235.0
-26.03,1708758235.015625
-28.98,1708758235.03125
-32.8,1708758235.046875
-37.5,1708758235.0625
-42.79,1708758235.078125
-48.12,1708758235.09375
-52.89,1708758235.109375
-56.81,1708758235.125
-59.96,1708758235.140625
-62.85,1708758235.15625
-66.21,1708758235.171875
-70.68,1708758235.1875
-76.54,1708758235.203125
-83.51,1708758235.21875
-90.75,1708758235.234375
-97.03,1708758235.25
-101.02,1708758235.265625
-101.61,1708758235.28125
-98.13,1708758235.296875
-90.55,1708758235.3125
-79.4,1708758235.328125
-65.7,1708758235.34375
-50.72,1708758235.359375
-35.81,1708758235.375
-22.12,1708758235.390625
-10.48,1708758235.40625
-1.22,1708758235.421875
5.78,1708758235.4375
11.02,1708758235.453125
15.09,1708758235.46875
18.41,1708758235.484375
21.09,1708758235.5
22.91,1708758235.515625
23.61,1708758235.53125
23.12,1708758235.546875
21.72,1708758235.5625
19.98,1708758235.578125
18.57,1708758235.59375
17.92,1708758235.609375
18.08,1708758235.625
18.83,1708758235.640625
19.83,1708758235.65625
20.85,1708758235.671875
21.87,1708758235.6875
22.93,1708758235.703125
23.96,1708758235.71875
24.68,1708758235.734375
24.63,1708758235.75
23.35,1708758235.765625
20.66,1708758235.78125
16.69,1708758235.796875
11.89,1708758235.8125
6.75,1708758235.828125
1.59,1708758235.84375
-3.5,1708758235.859375
-8.6,1708758235.875
-13.8,1708758235.890625
-19.06,1708758235.90625
-24.2,1708758235.921875
-29.06,1708758235.9375
-33.62,1708758235.953125
-38.06,1708758235.96875
-42.68,1708758235.984375
-47.73,1708758236.0
-53.16,1708758236.015625
-58.71,1708758236.03125
-63.99,1708758236.046875
-68.73,1708758236.0625
-73.01,1708758236.078125
-77.22,1708758236.09375
-81.91,1708758236.109375
-87.47,1708758236.125
-93.81,1708758236.140625
-100.17,1708758236.15625
-105.27,1708758236.171875
-107.58,1708758236.1875
-105.71,1708758236.203125
-98.92,1708758236.21875
-87.33,1708758236.234375
-71.86,1708758236.25
-54.07,1708758236.265625
-35.69,1708758236.28125
-18.24,1708758236.296875
-2.8,1708758236.3125
10.12,1708758236.328125
20.54,1708758236.34375
28.73,1708758236.359375
35.14,1708758236.375
40.22,1708758236.390625
44.36,1708758236.40625
47.87,1708758236.421875
50.99,1708758236.4375
53.85,1708758236.453125
56.39,1708758236.46875
58.45,1708758236.484375
59.86,1708758236.5
60.52,1708758236.515625
60.58,1708758236.53125
60.39,1708758236.546875
60.44,1708758236.5625
61.12,1708758236.578125
62.54,1708758236.59375
64.47,1708758236.609375
66.39,1708758236.625
67.73,1708758236.640625
68.06,1708758236.65625
67.23,1708758236.671875
65.4,1708758236.6875
62.87,1708758236.703125
59.93,1708758236.71875
56.8,1708758236.734375
53.49,1708758236.75
49.85,1708758236.765625
45.66,1708758236.78125
40.69,1708758236.796875
34.79,1708758236.8125
27.88,1708758236.828125
20.07,1708758236.84375
11.56,1708758236.859375
2.7,1708758236.875
-6.12,1708758236.890625
-14.49,1708758236.90625
-22.11,1708758236.921875
-28.84,1708758236.9375
-34.71,1708758236.953125
-39.93,1708758236.96875
-44.74,1708758236.984375
-49.33,1708758237.0
-53.88,1708758237.015625
-58.57,1708758237.03125
-63.64,1708758237.046875
-69.35,1708758237.0625
-75.86,1708758237.078125
-83.0,1708758237.09375
-90.14,1708758237.109375
-96.13,1708758237.125
-99.53,1708758237.140625
-99.01,1708758237.15625
-93.75,1708758237.171875
-83.75,1708758237.1875
-69.81,1708758237.203125
-53.41,1708758237.21875
-36.29,1708758237.234375
-20.02,1708758237.25
-5.71,1708758237.265625
6.16,1708758237.28125
15.66,1708758237.296875
23.23,1708758237.3125
29.34,1708758237.328125
34.33,1708758237.34375
38.34,1708758237.359375
41.39,1708758237.375
43.5,1708758237.390625
44.86,1708758237.40625
45.77,1708758237.421875
46.58,1708758237.4375
47.48,1708758237.453125
48.53,1708758237.46875
49.61,1708758237.484375
50.54,1708758237.5
51.24,1708758237.515625
51.74,1708758237.53125
52.21,1708758237.546875
52.73,1708758237.5625
53.25,1708758237.578125
53.48,1708758237.59375
52.96,1708758237.609375
51.27,1708758237.625
48.19,1708758237.640625
43.86,1708758237.65625
38.78,1708758237.671875
33.6,1708758237.6875
28.91,1708758237.703125
25.0,1708758237.71875
21.82,1708758237.734375
19.03,1708758237.75
16.21,1708758237.765625
13.04,1708758237.78125
9.42,1708758237.796875
5.46,1708758237.8125
1.38,1708758237.828125
-2.61,1708758237.84375
-6.42,1708758237.859375
-10.09,1708758237.875
-13.82,1708758237.890625
-17.97,1708758237.90625
-22.89,1708758237.921875
-28.92,1708758237.9375
-36.19,1708758237.953125
-44.38,1708758237.96875
-52.67,1708758237.984375
-59.77,1708758238.0
-64.14,1708758238.015625
-64.52,1708758238.03125
-60.26,1708758238.046875
-51.61,1708758238.0625
-39.63,1708758238.078125
-25.89,1708758238.09375
-11.95,1708758238.109375
0.97,1708758238.125
12.22,1708758238.140625
21.6,1708758238.15625
29.21,1708758238.171875
35.28,1708758238.1875
39.99,1708758238.203125
43.49,1708758238.21875
45.9,1708758238.234375
47.38,1708758238.25
48.14,1708758238.265625
48.44,1708758238.28125
48.52,1708758238.296875
48.64,1708758238.3125
48.94,1708758238.328125
49.46,1708758238.34375
50.13,1708758238.359375
50.79,1708758238.375
51.21,1708758238.390625
51.13,1708758238.40625
50.32,1708758238.421875
48.66,1708758238.4375
46.13,1708758238.453125
42.91,1708758238.46875
39.27,1708758238.484375
35.55,1708758238.5
32.06,1708758238.515625
28.91,1708758238.53125
26.05,1708758238.546875
23.31,1708758238.5625
20.45,1708758238.578125
17.37,1708758238.59375
14.1,1708758238.609375
10.78,1708758238.625
7.62,1708758238.640625
4.76,1708758238.65625
2.21,1708758238.671875
-0.12,1708758238.6875
-2.41,1708758238.703125
-4.83,1708758238.71875
-7.49,1708758238.734375
-10.4,1708758238.75
-13.51,1708758238.765625
-16.69,1708758238.78125
-19.84,1708758238.796875
-22.86,1708758238.8125
-25.76,1708758238.828125
-28.7,1708758238.84375
-32.02,1708758238.859375
-36.18,1708758238.875
-41.6,1708758238.890625
-48.36,1708758238.90625
-56.0,1708758238.921875
-63.43,1708758238.9375
-69.08,1708758238.953125
-71.31,1708758238.96875
-68.94,1708758238.984375
-61.67,1708758239.0
-50.19,1708758239.015625
-35.99,1708758239.03125
-20.9,1708758239.046875
-6.55,1708758239.0625
5.95,1708758239.078125
16.15,1708758239.09375
24.15,1708758239.109375
30.36,1708758239.125
35.2,1708758239.140625
38.99,1708758239.15625
41.9,1708758239.171875
44.0,1708758239.1875
45.36,1708758239.203125
46.12,1708758239.21875
46.45,1708758239.234375
46.52,1708758239.25
46.4,1708758239.265625
45.99,1708758239.28125
45.13,1708758239.296875
43.67,1708758239.3125
41.55,1708758239.328125
38.93,1708758239.34375
36.14,1708758239.359375
33.58,1708758239.375
31.54,1708758239.390625
30.07,1708758239.40625
28.84,1708758239.421875
27.24,1708758239.4375
24.54,1708758239.453125
20.17,1708758239.46875
13.99,1708758239.484375
6.43,1708758239.5
-1.64,1708758239.515625
-9.27,1708758239.53125
-15.82,1708758239.546875
-21.38,1708758239.5625
-26.8,1708758239.578125
-33.36,1708758239.59375
-42.21,1708758239.609375
-53.81,1708758239.625
-67.59,1708758239.640625
-82.16,1708758239.65625
-95.87,1708758239.671875
-107.54,1708758239.6875
-117.09,1708758239.703125
-125.62,1708758239.71875
-135.04,1708758239.734375
-147.27,1708758239.75
-163.57,1708758239.765625
-183.79,1708758239.78125
-206.31,1708758239.796875
-228.15,1708758239.8125
-245.7,1708758239.828125
-255.43,1708758239.84375
-254.94,1708758239.859375
-243.82,1708758239.875
-223.84,1708758239.890625
-198.75,1708758239.90625
-173.04,1708758239.921875
-150.36,1708758239.9375
-132.21,1708758239.953125
-117.29,1708758239.96875
-101.96,1708758239.984375
-81.52,1708758240.0
-52.35,1708758240.015625
-13.87,1708758240.03125
30.33,1708758240.046875
73.32,1708758240.0625
107.14,1708758240.078125
125.96,1708758240.09375
128.47,1708758240.109375
118.27,1708758240.125
102.04,1708758240.140625
86.45,1708758240.15625
75.49,1708758240.171875
69.64,1708758240.1875
67.0,1708758240.203125
65.46,1708758240.21875
64.5,1708758240.234375
65.32,1708758240.25
69.35,1708758240.265625
76.63,1708758240.28125
84.92,1708758240.296875
90.75,1708758240.3125
91.27,1708758240.328125
86.02,1708758240.34375
77.24,1708758240.359375
68.68,1708758240.375
63.8,1708758240.390625
63.93,1708758240.40625
67.82,1708758240.421875
72.5,1708758240.4375
75.01,1708758240.453125
73.77,1708758240.46875
69.1,1708758240.484375
62.68,1708758240.5
56.36,1708758240.515625
51.27,1708758240.53125
47.36,1708758240.546875
43.86,1708758240.5625
39.86,1708758240.578125
34.85,1708758240.59375
28.84,1708758240.609375
22.24,1708758240.625
15.47,1708758240.640625
8.73,1708758240.65625
1.9,1708758240.671875
-5.39,1708758240.6875
-13.6,1708758240.703125
-22.98,1708758240.71875
-33.41,1708758240.734375
-44.15,1708758240.75
-53.93,1708758240.765625
-61.11,1708758240.78125
-64.06,1708758240.796875
-61.67,1708758240.8125
-53.61,1708758240.828125
-40.33,1708758240.84375
-22.88,1708758240.859375
-2.44,1708758240.875
19.96,1708758240.890625
43.57,1708758240.90625
67.8,1708758240.921875
91.97,1708758240.9375
115.2,1708758240.953125
136.37,1708758240.96875
154.43,1708758240.984375
168.58,1708758241.0
178.6,1708758241.015625
184.84,1708758241.03125
188.21,1708758241.046875
189.84,1708758241.0625
190.81,1708758241.078125
191.92,1708758241.09375
193.48,1708758241.109375
195.33,1708758241.125
197.0,1708758241.140625
197.92,1708758241.15625
197.6,1708758241.171875
195.72,1708758241.1875
191.98,1708758241.203125
186.01,1708758241.21875
177.36,1708758241.234375
165.65,1708758241.25
150.86,1708758241.265625
133.38,1708758241.28125
114.0,1708758241.296875
93.61,1708758241.3125
72.88,1708758241.328125
52.06,1708758241.34375
31.02,1708758241.359375
9.56,1708758241.375
-12.4,1708758241.390625
-34.68,1708758241.40625
-56.92,1708758241.421875
-78.62,1708758241.4375
-99.26,1708758241.453125
-118.27,1708758241.46875
-135.13,1708758241.484375
-149.55,1708758241.5
-161.53,1708758241.515625
-171.37,1708758241.53125
-179.29,1708758241.546875
-185.15,1708758241.5625
-188.21,1708758241.578125
-187.39,1708758241.59375
-181.71,1708758241.609375
-170.93,1708758241.625
-155.75,1708758241.640625
-137.64,1708758241.65625
-118.33,1708758241.671875
-99.28,1708758241.6875
-81.36,1708758241.703125
-64.88,1708758241.71875
-49.85,1708758241.734375
-36.23,1708758241.75
-24.04,1708758241.765625
-13.28,1708758241.78125
-3.85,1708758241.796875
4.47,1708758241.8125
12.11,1708758241.828125
19.51,1708758241.84375
27.12,1708758241.859375
35.29,1708758241.875
44.16,1708758241.890625
53.63,1708758241.90625
63.29,1708758241.921875
72.39,1708758241.9375
79.94,1708758241.953125
84.93,1708758241.96875
86.62,1708758241.984375
84.89,1708758242.0
80.4,1708758242.015625
74.47,1708758242.03125
68.66,1708758242.046875
64.19,1708758242.0625
61.51,1708758242.078125
60.22,1708758242.09375
59.32,1708758242.109375
57.78,1708758242.125
54.92,1708758242.140625
50.62,1708758242.15625
45.22,1708758242.171875
39.19,1708758242.1875
32.88,1708758242.203125
26.45,1708758242.21875
19.87,1708758242.234375
13.05,1708758242.25
5.9,1708758242.265625
-1.62,1708758242.28125
-9.51,1708758242.296875
-17.69,1708758242.3125
-25.89,1708758242.328125
-33.62,1708758242.34375
-40.14,1708758242.359375
-44.59,1708758242.375
-46.16,1708758242.390625
-44.37,1708758242.40625
-39.18,1708758242.421875
-31.08,1708758242.4375
-20.98,1708758242.453125
-10.06,1708758242.46875
0.57,1708758242.484375
9.95,1708758242.5
17.58,1708758242.515625
23.38,1708758242.53125
27.63,1708758242.546875
30.76,1708758242.5625
33.19,1708758242.578125
35.11,1708758242.59375
36.47,1708758242.609375
37.13,1708758242.625
36.94,1708758242.640625
35.95,1708758242.65625
34.34,1708758242.671875
32.39,1708758242.6875
30.39,1708758242.703125
28.5,1708758242.71875
26.83,1708758242.734375
25.39,1708758242.75
24.22,1708758242.765625
23.29,1708758242.78125
22.56,1708758242.796875
21.93,1708758242.8125
21.22,1708758242.828125
20.23,1708758242.84375
18.83,1708758242.859375
16.89,1708758242.875
14.35,1708758242.890625
11.23,1708758242.90625
7.61,1708758242.921875
3.61,1708758242.9375
-0.61,1708758242.953125
-4.88,1708758242.96875
-9.09,1708758242.984375
-13.17,1708758243.0
-17.11,1708758243.015625
-21.0,1708758243.03125
-25.0,1708758243.046875
-29.38,1708758243.0625
-34.44,1708758243.078125
-40.38,1708758243.09375
-47.14,1708758243.109375
-54.26,1708758243.125
-60.84,1708758243.140625
-65.69,1708758243.15625
-67.61,1708758243.171875
-65.73,1708758243.1875
-59.76,1708758243.203125
-50.16,1708758243.21875
-37.93,1708758243.234375
-24.42,1708758243.25
-10.98,1708758243.265625
1.37,1708758243.28125
11.97,1708758243.296875
20.59,1708758243.3125
27.28,1708758243.328125
32.18,1708758243.34375
35.46,1708758243.359375
37.26,1708758243.375
37.75,1708758243.390625
37.12,1708758243.40625
35.67,1708758243.421875
33.71,1708758243.4375
31.55,1708758243.453125
29.41,1708758243.46875
27.4,1708758243.484375
25.5,1708758243.5
23.61,1708758243.515625
21.65,1708758243.53125
19.57,1708758243.546875
17.46,1708758243.5625
15.43,1708758243.578125
13.62,1708758243.59375
12.04,1708758243.609375
10.5,1708758243.625
8.69,1708758243.640625
6.21,1708758243.65625
2.8,1708758243.671875
-1.56,1708758243.6875
-6.63,1708758243.703125
-11.98,1708758243.71875
-17.16,1708758243.734375
-21.89,1708758243.75
-26.14,1708758243.765625
-30.09,1708758243.78125
-34.13,1708758243.796875
-38.66,1708758243.8125
-43.98,1708758243.828125
-50.15,1708758243.84375
-56.87,1708758243.859375
-63.43,1708758243.875
-68.81,1708758243.890625
-71.85,1708758243.90625
-71.56,1708758243.921875
-67.42,1708758243.9375
-59.58,1708758243.953125
-48.82,1708758243.96875
-36.37,1708758243.984375
-23.59,1708758244.0
-11.6,1708758244.015625
-1.14,1708758244.03125
7.51,1708758244.046875
14.4,1708758244.0625
19.76,1708758244.078125
23.81,1708758244.09375
26.7,1708758244.109375
28.54,1708758244.125
29.38,1708758244.140625
29.38,1708758244.15625
28.76,1708758244.171875
27.81,1708758244.1875
26.81,1708758244.203125
25.92,1708758244.21875
25.2,1708758244.234375
24.57,1708758244.25
23.87,1708758244.265625
22.94,1708758244.28125
21.7,1708758244.296875
20.15,1708758244.3125
18.35,1708758244.328125
16.39,1708758244.34375
14.32,1708758244.359375
12.09,1708758244.375
9.58,1708758244.390625
6.64,1708758244.40625
3.17,1708758244.421875
-0.78,1708758244.4375
-5.12,1708758244.453125
-9.7,1708758244.46875
-14.39,1708758244.484375
-19.04,1708758244.5
-23.42,1708758244.515625
-27.22,1708758244.53125
-30.19,1708758244.546875
-32.28,1708758244.5625
-33.89,1708758244.578125
-35.8,1708758244.59375
-38.99,1708758244.609375
-44.11,1708758244.625
-51.07,1708758244.640625
-58.91,1708758244.65625
-65.95,1708758244.671875
-70.38,1708758244.6875
-70.77,1708758244.703125
-66.52,1708758244.71875
-57.95,1708758244.734375
-46.15,1708758244.75
-32.65,1708758244.765625
-19.02,1708758244.78125
-6.56,1708758244.796875
3.9,1708758244.8125
12.02,1708758244.828125
17.88,1708758244.84375
21.86,1708758244.859375
24.38,1708758244.875
25.88,1708758244.890625
26.64,1708758244.90625
26.91,1708758244.921875
26.84,1708758244.9375
26.55,1708758244.953125
26.09,1708758244.96875
25.46,1708758244.984375
24.62,1708758245.0
23.57,1708758245.015625
22.37,1708758245.03125
21.17,1708758245.046875
20.19,1708758245.0625
19.54,1708758245.078125
19.19,1708758245.09375
18.97,1708758245.109375
18.56,1708758245.125
17.67,1708758245.140625
16.13,1708758245.15625
13.99,1708758245.171875
11.42,1708758245.1875
8.66,1708758245.203125
5.85,1708758245.21875
3.04,1708758245.234375
0.21,1708758245.25
-2.71,1708758245.265625
-5.78,1708758245.28125
-8.97,1708758245.296875
-12.23,1708758245.3125
-15.57,1708758245.328125
-18.96,1708758245.34375
-22.43,1708758245.359375
-25.95,1708758245.375
-29.53,1708758245.390625
-33.12,1708758245.40625
-36.69,1708758245.421875
-40.19,1708758245.4375
-43.58,1708758245.453125
-46.79,1708758245.46875
-49.81,1708758245.484375
-52.72,1708758245.5
-55.74,1708758245.515625
-59.2,1708758245.53125
-63.42,1708758245.546875
-68.55,1708758245.5625
-74.29,1708758245.578125
-79.85,1708758245.59375
-84.02,1708758245.609375
-85.42,1708758245.625
-82.94,1708758245.640625
-76.12,1708758245.65625
-65.31,1708758245.671875
-51.64,1708758245.6875
-36.69,1708758245.703125
-22.04,1708758245.71875
-8.92,1708758245.734375
2.04,1708758245.75
10.7,1708758245.765625
17.31,1708758245.78125
22.25,1708758245.796875
25.85,1708758245.8125
28.31,1708758245.828125
29.77,1708758245.84375
30.36,1708758245.859375
30.32,1708758245.875
29.93,1708758245.890625
29.47,1708758245.90625
29.09,1708758245.921875
28.78,1708758245.9375
28.43,1708758245.953125
27.99,1708758245.96875
27.53,1708758245.984375
27.28,1708758246.0
27.43,1708758246.015625
28.05,1708758246.03125
28.87,1708758246.046875
29.45,1708758246.0625
29.31,1708758246.078125
28.15,1708758246.09375
25.99,1708758246.109375
23.14,1708758246.125
19.99,1708758246.140625
16.84,1708758246.15625
13.81,1708758246.171875
10.84,1708758246.1875
7.78,1708758246.203125
4.5,1708758246.21875
0.95,1708758246.234375
-2.8,1708758246.25
-6.65,1708758246.265625
-10.5,1708758246.28125
-14.28,1708758246.296875
-17.97,1708758246.3125
-21.62,1708758246.328125
-25.28,1708758246.34375
-28.98,1708758246.359375
-32.74,1708758246.375
-36.51,1708758246.390625
-40.25,1708758246.40625
-43.97,1708758246.421875
-47.73,1708758246.4375
-51.68,1708758246.453125
-55.95,1708758246.46875
-60.55,1708758246.484375
-65.23,1708758246.5
-69.47,1708758246.515625
-72.44,1708758246.53125
-73.21,1708758246.546875
-70.98,1708758246.5625
-65.33,1708758246.578125
-56.34,1708758246.59375
-44.63,1708758246.609375
-31.22,1708758246.625
-17.31,1708758246.640625
-4.07,1708758246.65625
7.58,1708758246.671875
17.01,1708758246.6875
23.99,1708758246.703125
28.61,1708758246.71875
31.24,1708758246.734375
32.5,1708758246.75
33.02,1708758246.765625
33.32,1708758246.78125
33.68,1708758246.796875
34.1,1708758246.8125
34.34,1708758246.828125
34.16,1708758246.84375
33.39,1708758246.859375
32.08,1708758246.875
30.45,1708758246.890625
28.78,1708758246.90625
27.26,1708758246.921875
25.97,1708758246.9375
24.82,1708758246.953125
23.65,1708758246.96875
22.25,1708758246.984375
20.47,1708758247.0
18.19,1708758247.015625
15.37,1708758247.03125
12.1,1708758247.046875
8.48,1708758247.0625
4.66,1708758247.078125
0.79,1708758247.09375
-3.03,1708758247.109375
-6.75,1708758247.125
-10.34,1708758247.140625
-13.81,1708758247.15625
-17.25,1708758247.171875
-20.79,1708758247.1875
-24.68,1708758247.203125
-29.15,1708758247.21875
-34.34,1708758247.234375
-40.23,1708758247.25
-46.59,1708758247.265625
-52.99,1708758247.28125
-58.85,1708758247.296875
-63.52,1708758247.3125
-66.28,1708758247.328125
-66.43,1708758247.34375
-63.37,1708758247.359375
-56.8,1708758247.375
-46.94,1708758247.390625
-34.52,1708758247.40625
-20.73,1708758247.421875
-6.94,1708758247.4375
5.65,1708758247.453125
16.26,1708758247.46875
24.56,1708758247.484375
30.65,1708758247.5
34.84,1708758247.515625
37.5,1708758247.53125
38.89,1708758247.546875
39.22,1708758247.5625
38.61,1708758247.578125
37.26,1708758247.59375
35.42,1708758247.609375
33.37,1708758247.625
31.42,1708758247.640625
29.77,1708758247.65625
28.49,1708758247.671875
27.56,1708758247.6875
26.86,1708758247.703125
26.26,1708758247.71875
25.64,1708758247.734375
24.89,1708758247.75
23.86,1708758247.765625
22.4,1708758247.78125
20.38,1708758247.796875
17.74,1708758247.8125
14.54,1708758247.828125
10.97,1708758247.84375
7.3,1708758247.859375
3.8,1708758247.875
0.57,1708758247.890625
-2.47,1708758247.90625
-5.55,1708758247.921875
-8.99,1708758247.9375
-12.96,1708758247.953125
-17.42,1708758247.96875
-22.09,1708758247.984375
-26.58,1708758248.0
-30.58,1708758248.015625
-34.01,1708758248.03125
-37.16,1708758248.046875
-40.51,1708758248.0625
-44.51,1708758248.078125
-49.37,1708758248.09375
-54.83,1708758248.109375
-60.06,1708758248.125
-63.85,1708758248.140625
-64.8,1708758248.15625
-61.75,1708758248.171875
-54.17,1708758248.1875
-42.36,1708758248.203125
-27.5,1708758248.21875
-11.41,1708758248.234375
3.96,1708758248.25
17.02,1708758248.265625
26.92,1708758248.28125
33.66,1708758248.296875
37.93,1708758248.3125
40.72,1708758248.328125
42.87,1708758248.34375
44.87,1708758248.359375
46.76,1708758248.375
48.28,1708758248.390625
49.09,1708758248.40625
48.95,1708758248.421875
47.78,1708758248.4375
45.71,1708758248.453125
42.97,1708758248.46875
39.91,1708758248.484375
36.92,1708758248.5
34.36,1708758248.515625
32.48,1708758248.53125
31.28,1708758248.546875
30.48,1708758248.5625
29.66,1708758248.578125
28.39,1708758248.59375
26.45,1708758248.609375
23.86,1708758248.625
20.78,1708758248.640625
17.38,1708758248.65625
13.72,1708758248.671875
9.74,1708758248.6875
5.42,1708758248.703125
0.85,1708758248.71875
-3.75,1708758248.734375
-8.16,1708758248.75
-12.33,1708758248.765625
-16.3,1708758248.78125
-20.3,1708758248.796875
-24.45,1708758248.8125
-28.77,1708758248.828125
-33.16,1708758248.84375
-37.62,1708758248.859375
-42.33,1708758248.875
-47.65,1708758248.890625
-53.85,1708758248.90625
-60.81,1708758248.921875
-67.79,1708758248.9375
-73.42,1708758248.953125
-76.09,1708758248.96875
-74.45,1708758248.984375
-67.9,1708758249.0
-56.81,1708758249.015625
-42.49,1708758249.03125
-26.74,1708758249.046875
-11.3,1708758249.0625
2.55,1708758249.078125
14.23,1708758249.09375
23.75,1708758249.109375
31.39,1708758249.125
37.43,1708758249.140625
41.91,1708758249.15625
44.69,1708758249.171875
45.61,1708758249.1875
44.68,1708758249.203125
42.24,1708758249.21875
38.89,1708758249.234375
35.35,1708758249.25
32.19,1708758249.265625
29.68,1708758249.28125
27.83,1708758249.296875
26.46,1708758249.3125
25.37,1708758249.328125
24.46,1708758249.34375
23.73,1708758249.359375
23.25,1708758249.375
22.95,1708758249.390625
22.6,1708758249.40625
21.83,1708758249.421875
20.25,1708758249.4375
17.62,1708758249.453125
13.89,1708758249.46875
9.29,1708758249.484375
4.15,1708758249.5
-1.18,1708758249.515625
-6.4,1708758249.53125
-11.33,1708758249.546875
-15.88,1708758249.5625
-20.11,1708758249.578125
-24.13,1708758249.59375
-28.22,1708758249.609375
-32.7,1708758249.625
-37.92,1708758249.640625
-44.08,1708758249.65625
-51.02,1708758249.671875
-58.14,1708758249.6875
-64.4,1708758249.703125
-68.47,1708758249.71875
-69.07,1708758249.734375
-65.32,1708758249.75
-57.03,1708758249.765625
-44.83,1708758249.78125
-30.01,1708758249.796875
-14.2,1708758249.8125
0.99,1708758249.828125
14.35,1708758249.84375
25.12,1708758249.859375
33.13,1708758249.875
38.51,1708758249.890625
41.63,1708758249.90625
42.91,1708758249.921875
42.77,1708758249.9375
41.61,1708758249.953125
39.79,1708758249.96875
37.67,1708758249.984375
35.51,1708758250.0
33.47,1708758250.015625
31.56,1708758250.03125
29.67,1708758250.046875
27.67,1708758250.0625
25.47,1708758250.078125
23.15,1708758250.09375
20.94,1708758250.109375
19.13,1708758250.125
17.88,1708758250.140625
17.11,1708758250.15625
16.38,1708758250.171875
15.05,1708758250.1875
12.47,1708758250.203125
8.29,1708758250.21875
2.64,1708758250.234375
-3.87,1708758250.25
-10.35,1708758250.265625
-16.02,1708758250.28125
-20.46,1708758250.296875
-23.85,1708758250.3125
-26.85,1708758250.328125
-30.37,1708758250.34375
-35.29,1708758250.359375
-42.04,1708758250.375
-50.45,1708758250.390625
-59.57,1708758250.40625
-67.94,1708758250.421875
-73.75,1708758250.4375
-75.39,1708758250.453125
-71.85,1708758250.46875
-63.04,1708758250.484375
-49.82,1708758250.5
-33.89,1708758250.515625
-17.23,1708758250.53125
-1.68,1708758250.546875
11.5,1708758250.5625
21.78,1708758250.578125
29.27,1708758250.59375
34.4,1708758250.609375
37.68,1708758250.625
39.48,1708758250.640625
40.0,1708758250.65625
39.34,1708758250.671875
37.69,1708758250.6875
35.36,1708758250.703125
32.72,1708758250.71875
30.12,1708758250.734375
27.76,1708758250.75
25.67,1708758250.765625
23.79,1708758250.78125
22.07,1708758250.796875
20.55,1708758250.8125
19.39,1708758250.828125
18.69,1708758250.84375
18.45,1708758250.859375
18.4,1708758250.875
18.1,1708758250.890625
17.07,1708758250.90625
14.95,1708758250.921875
11.63,1708758250.9375
7.31,1708758250.953125
2.36,1708758250.96875
-2.74,1708758250.984375
-7.62,1708758251.0
-12.12,1708758251.015625
-16.3,1708758251.03125
-20.4,1708758251.046875
-24.76,1708758251.0625
-29.74,1708758251.078125
-35.67,1708758251.09375
-42.71,1708758251.109375
-50.74,1708758251.125
-59.21,1708758251.140625
-67.09,1708758251.15625
-72.95,1708758251.171875
-75.26,1708758251.1875
-72.81,1708758251.203125
-65.15,1708758251.21875
-52.77,1708758251.234375
-37.05,1708758251.25
-19.84,1708758251.265625
-3.02,1708758251.28125
11.98,1708758251.296875
24.37,1708758251.3125
33.99,1708758251.328125
41.05,1708758251.34375
45.86,1708758251.359375
48.69,1708758251.375
49.74,1708758251.390625
49.19,1708758251.40625
47.35,1708758251.421875
44.63,1708758251.4375
41.54,1708758251.453125
38.59,1708758251.46875
36.12,1708758251.484375
34.28,1708758251.5
32.97,1708758251.515625
31.94,1708758251.53125
30.93,1708758251.546875
29.78,1708758251.5625
28.46,1708758251.578125
27.06,1708758251.59375
25.69,1708758251.609375
24.3,1708758251.625
22.75,1708758251.640625
20.69,1708758251.65625
17.82,1708758251.671875
13.94,1708758251.6875
9.13,1708758251.703125
3.7,1708758251.71875
-1.95,1708758251.734375
-7.41,1708758251.75
-12.5,1708758251.765625
-17.18,1708758251.78125
-21.62,1708758251.796875
-26.06,1708758251.8125
-30.78,1708758251.828125
-36.07,1708758251.84375
-42.18,1708758251.859375
-49.17,1708758251.875
-56.78,1708758251.890625
-64.26,1708758251.90625
-70.33,1708758251.921875
-73.46,1708758251.9375
-72.2,1708758251.953125
-65.71,1708758251.96875
-54.08,1708758251.984375
-38.4,1708758252.0
-20.48,1708758252.015625
-2.38,1708758252.03125
14.14,1708758252.046875
27.91,1708758252.0625
38.52,1708758252.078125
46.04,1708758252.09375
50.87,1708758252.109375
53.46,1708758252.125
54.21,1708758252.140625
53.54,1708758252.15625
51.87,1708758252.171875
49.63,1708758252.1875
47.21,1708758252.203125
44.87,1708758252.21875
42.69,1708758252.234375
40.64,1708758252.25
38.71,1708758252.265625
36.99,1708758252.28125
35.62,1708758252.296875
34.73,1708758252.3125
34.27,1708758252.328125
34.02,1708758252.34375
33.58,1708758252.359375
32.57,1708758252.375
30.74,1708758252.390625
28.06,1708758252.40625
24.68,1708758252.421875
20.89,1708758252.4375
16.96,1708758252.453125
13.02,1708758252.46875
9.05,1708758252.484375
4.85,1708758252.5
0.17,1708758252.515625
-5.13,1708758252.53125
-10.96,1708758252.546875
-17.06,1708758252.5625
-23.05,1708758252.578125
-28.63,1708758252.59375
-33.78,1708758252.609375
-38.75,1708758252.625
-43.97,1708758252.640625
-49.91,1708758252.65625
-56.75,1708758252.671875
-64.21,1708758252.6875
-71.46,1708758252.703125
-77.21,1708758252.71875
-79.95,1708758252.734375
-78.29,1708758252.75
-71.43,1708758252.765625
-59.39,1708758252.78125
-43.19,1708758252.796875
-24.59,1708758252.8125
-5.69,1708758252.828125
11.6,1708758252.84375
26.01,1708758252.859375
37.0,1708758252.875
44.67,1708758252.890625
49.52,1708758252.90625
52.15,1708758252.921875
53.08,1708758252.9375
52.77,1708758252.953125
51.58,1708758252.96875
49.89,1708758252.984375
48.0,1708758253.0
46.16,1708758253.015625
44.44,1708758253.03125
42.87,1708758253.046875
41.44,1708758253.0625
40.19,1708758253.078125
39.21,1708758253.09375
38.62,1708758253.109375
38.46,1708758253.125
38.64,1708758253.140625
38.94,1708758253.15625
39.05,1708758253.171875
38.63,1708758253.1875
37.45,1708758253.203125
35.4,1708758253.21875
32.53,1708758253.234375
29.01,1708758253.25
25.01,1708758253.265625
20.69,1708758253.28125
16.2,1708758253.296875
11.61,1708758253.3125
7.0,1708758253.328125
2.46,1708758253.34375
-1.98,1708758253.359375
-6.32,1708758253.375
-10.61,1708758253.390625
-14.99,1708758253.40625
-19.59,1708758253.421875
-24.5,1708758253.4375
-29.69,1708758253.453125
-35.03,1708758253.46875
-40.29,1708758253.484375
-45.21,1708758253.5
-49.65,1708758253.515625
-53.59,1708758253.53125
-57.31,1708758253.546875
-61.29,1708758253.5625
-66.15,1708758253.578125
-72.34,1708758253.59375
-79.82,1708758253.609375
-87.85,1708758253.625
-94.94,1708758253.640625
-99.16,1708758253.65625
-98.66,1708758253.671875
-92.27,1708758253.6875
-79.93,1708758253.703125
-62.75,1708758253.71875
-42.73,1708758253.734375
-22.2,1708758253.75
-3.23,1708758253.765625
12.73,1708758253.78125
25.04,1708758253.796875
33.78,1708758253.8125
39.44,1708758253.828125
42.75,1708758253.84375
44.39,1708758253.859375
44.91,1708758253.875
44.67,1708758253.890625
43.91,1708758253.90625
42.78,1708758253.921875
41.43,1708758253.9375
40.01,1708758253.953125
38.67,1708758253.96875
37.5,1708758253.984375
36.57,1708758254.0
35.92,1708758254.015625
35.6,1708758254.03125
35.58,1708758254.046875
35.75,1708758254.0625
35.91,1708758254.078125
35.79,1708758254.09375
35.15,1708758254.109375
33.82,1708758254.125
31.76,1708758254.140625
29.02,1708758254.15625
25.7,1708758254.171875
21.89,1708758254.1875
17.72,1708758254.203125
13.3,1708758254.21875
8.82,1708758254.234375
4.5,1708758254.25
0.45,1708758254.265625
-3.35,1708758254.28125
-7.12,1708758254.296875
-11.19,1708758254.3125
-15.85,1708758254.328125
-21.15,1708758254.34375
-26.89,1708758254.359375
-32.62,1708758254.375
-37.82,1708758254.390625
-42.16,1708758254.40625
-45.66,1708758254.421875
-48.66,1708758254.4375
-51.81,1708758254.453125
-55.81,1708758254.46875
-61.16,1708758254.484375
-67.83,1708758254.5
-75.2,1708758254.515625
-82.02,1708758254.53125
-86.59,1708758254.546875
-87.24,1708758254.5625
-82.75,1708758254.578125
-72.79,1708758254.59375
-57.99,1708758254.609375
-39.91,1708758254.625
-20.5,1708758254.640625
-1.72,1708758254.65625
14.93,1708758254.671875
28.6,1708758254.6875
39.03,1708758254.703125
46.42,1708758254.71875
51.18,1708758254.734375
53.73,1708758254.75
54.46,1708758254.765625
53.69,1708758254.78125
51.8,1708758254.796875
49.23,1708758254.8125
46.44,1708758254.828125
43.88,1708758254.84375
41.82,1708758254.859375
40.37,1708758254.875
39.51,1708758254.890625
39.12,1708758254.90625
39.09,1708758254.921875
39.34,1708758254.9375
39.81,1708758254.953125
40.33,1708758254.96875
40.66,1708758254.984375
40.57,1708758255.0
39.86,1708758255.015625
38.44,1708758255.03125
36.31,1708758255.046875
33.45,1708758255.0625
29.91,1708758255.078125
25.76,1708758255.09375
21.25,1708758255.109375
16.68,1708758255.125
12.39,1708758255.140625
8.48,1708758255.15625
4.8,1708758255.171875
0.97,1708758255.1875
-3.42,1708758255.203125
-8.58,1708758255.21875
-14.38,1708758255.234375
-20.43,1708758255.25
-26.24,1708758255.265625
-31.5,1708758255.28125
-36.1,1708758255.296875
-40.21,1708758255.3125
-44.14,1708758255.328125
-48.25,1708758255.34375
-52.88,1708758255.359375
-58.37,1708758255.375
-64.87,1708758255.390625
-72.26,1708758255.40625
-79.92,1708758255.421875
-86.64,1708758255.4375
-90.75,1708758255.453125
-90.59,1708758255.46875
-84.97,1708758255.484375
-73.65,1708758255.5
-57.53,1708758255.515625
-38.4,1708758255.53125
-18.47,1708758255.546875
0.3,1708758255.5625
16.54,1708758255.578125
29.67,1708758255.59375
39.67,1708758255.609375
46.85,1708758255.625
51.61,1708758255.640625
54.3,1708758255.65625
55.32,1708758255.671875
55.15,1708758255.6875
54.29,1708758255.703125
53.2,1708758255.71875
52.11,1708758255.734375
51.06,1708758255.75
49.94,1708758255.765625
48.69,1708758255.78125
47.38,1708758255.796875
46.23,1708758255.8125
45.46,1708758255.828125
45.12,1708758255.84375
45.07,1708758255.859375
44.95,1708758255.875
44.44,1708758255.890625
43.27,1708758255.90625
41.41,1708758255.921875
38.94,1708758255.9375
36.03,1708758255.953125
32.82,1708758255.96875
29.4,1708758255.984375
25.78,1708758256.0
21.93,1708758256.015625
17.82,1708758256.03125
13.41,1708758256.046875
8.74,1708758256.0625
3.93,1708758256.078125
-0.89,1708758256.09375
-5.55,1708758256.109375
-10.01,1708758256.125
-14.34,1708758256.140625
-18.71,1708758256.15625
-23.3,1708758256.171875
-28.17,1708758256.1875
-33.21,1708758256.203125
-38.17,1708758256.21875
-42.79,1708758256.234375
-46.94,1708758256.25
-50.75,1708758256.265625
-54.56,1708758256.28125
-58.86,1708758256.296875
-64.12,1708758256.3125
-70.55,1708758256.328125
-77.98,1708758256.34375
-85.66,1708758256.359375
-92.32,1708758256.375
-96.32,1708758256.390625
-96.06,1708758256.40625
-90.39,1708758256.421875
-79.05,1708758256.4375
-62.83,1708758256.453125
-43.42,1708758256.46875
-23.04,1708758256.484375
-3.8,1708758256.5
12.69,1708758256.515625
25.63,1708758256.53125
34.93,1708758256.546875
41.01,1708758256.5625
44.52,1708758256.578125
46.05,1708758256.59375
46.11,1708758256.609375
45.11,1708758256.625
43.45,1708758256.640625
41.51,1708758256.65625
39.65,1708758256.671875
38.08,1708758256.6875
36.88,1708758256.703125
35.95,1708758256.71875
35.18,1708758256.734375
34.48,1708758256.75
33.85,1708758256.765625
33.41,1708758256.78125
33.25,1708758256.796875
33.38,1708758256.8125
33.61,1708758256.828125
33.64,1708758256.84375
33.12,1708758256.859375
31.81,1708758256.875
29.67,1708758256.890625
26.83,1708758256.90625
23.52,1708758256.921875
19.92,1708758256.9375
16.16,1708758256.953125
12.28,1708758256.96875
8.32,1708758256.984375
4.35,1708758257.0
0.41,1708758257.015625
-3.51,1708758257.03125
-7.57,1708758257.046875
-11.96,1708758257.0625
-16.77,1708758257.078125
-21.94,1708758257.09375
-27.2,1708758257.109375
-32.18,1708758257.125
-36.61,1708758257.140625
-40.45,1708758257.15625
-43.96,1708758257.171875
-47.55,1708758257.1875
-51.66,1708758257.203125
-56.62,1708758257.21875
-62.57,1708758257.234375
-69.32,1708758257.25
-76.28,1708758257.265625
-82.4,1708758257.28125
-86.27,1708758257.296875
-86.36,1708758257.3125
-81.48,1708758257.328125
-71.19,1708758257.34375
-56.09,1708758257.359375
-37.73,1708758257.375
-18.25,1708758257.390625
0.26,1708758257.40625
16.2,1708758257.421875
28.76,1708758257.4375
37.87,1708758257.453125
43.91,1708758257.46875
47.44,1708758257.484375
48.96,1708758257.5
48.94,1708758257.515625
47.83,1708758257.53125
46.06,1708758257.546875
44.12,1708758257.5625
42.32,1708758257.578125
40.87,1708758257.59375
39.74,1708758257.609375
38.88,1708758257.625
38.22,1708758257.640625
37.82,1708758257.65625
37.76,1708758257.671875
38.08,1708758257.6875
38.67,1708758257.703125
39.26,1708758257.71875
39.45,1708758257.734375
38.83,1708758257.75
37.11,1708758257.765625
34.23,1708758257.78125
30.33,1708758257.796875
25.78,1708758257.8125
20.95,1708758257.828125
16.13,1708758257.84375
11.42,1708758257.859375
6.64,1708758257.875
1.56,1708758257.890625
-4.07,1708758257.90625
-10.26,1708758257.921875
-16.74,1708758257.9375
-23.09,1708758257.953125
-28.88,1708758257.96875
-33.88,1708758257.984375
-38.23,1708758258.0
-42.41,1708758258.015625
-47.06,1708758258.03125
-52.83,1708758258.046875
-59.97,1708758258.0625
-68.12,1708758258.078125
-76.21,1708758258.09375
-82.57,1708758258.109375
-85.33,1708758258.125
-83.0,1708758258.140625
-74.89,1708758258.15625
-61.45,1708758258.171875
-44.11,1708758258.1875
-24.92,1708758258.203125
-5.99,1708758258.21875
11.02,1708758258.234375
25.06,1708758258.25
35.77,1708758258.265625
43.32,1708758258.28125
48.14,1708758258.296875
50.79,1708758258.3125
51.86,1708758258.328125
51.9,1708758258.34375
51.34,1708758258.359375
50.51,1708758258.375
49.59,1708758258.390625
48.62,1708758258.40625
47.61,1708758258.421875
46.52,1708758258.4375
45.38,1708758258.453125
44.31,1708758258.46875
43.44,1708758258.484375
42.91,1708758258.5
42.75,1708758258.515625
42.9,1708758258.53125
43.18,1708758258.546875
43.33,1708758258.5625
42.98,1708758258.578125
41.74,1708758258.59375
39.3,1708758258.609375
35.57,1708758258.625
30.66,1708758258.640625
24.95,1708758258.65625
18.95,1708758258.671875
13.16,1708758258.6875
7.87,1708758258.703125
3.1,1708758258.71875
-1.37,1708758258.734375
-5.89,1708758258.75
-10.77,1708758258.765625
-16.16,1708758258.78125
-22.02,1708758258.796875
-28.13,1708758258.8125
-34.14,1708758258.828125
-39.74,1708758258.84375
-44.76,1708758258.859375
-49.24,1708758258.875
-53.48,1708758258.890625
-57.97,1708758258.90625
-63.26,1708758258.921875
-69.78,1708758258.9375
-77.54,1708758258.953125
-85.99,1708758258.96875
-93.89,1708758258.984375
-99.51,1708758259.0
-101.04,1708758259.015625
-97.11,1708758259.03125
-87.28,1708758259.046875
-72.22,1708758259.0625
-53.57,1708758259.078125
-33.49,1708758259.09375
-14.13,1708758259.109375
2.9,1708758259.125
16.71,1708758259.140625
27.18,1708758259.15625
34.75,1708758259.171875
40.17,1708758259.1875
44.17,1708758259.203125
47.25,1708758259.21875
49.61,1708758259.234375
51.17,1708758259.25
51.82,1708758259.265625
51.57,1708758259.28125
50.63,1708758259.296875
49.37,1708758259.3125
48.15,1708758259.328125
47.18,1708758259.34375
46.53,1708758259.359375
46.2,1708758259.375
46.18,1708758259.390625
46.53,1708758259.40625
47.26,1708758259.421875
48.19,1708758259.4375
48.96,1708758259.453125
49.09,1708758259.46875
48.19,1708758259.484375
46.15,1708758259.5
43.18,1708758259.515625
39.74,1708758259.53125
36.26,1708758259.546875
32.91,1708758259.5625
29.67,1708758259.578125
26.27,1708758259.59375
22.46,1708758259.609375
18.14,1708758259.625
13.43,1708758259.640625
8.62,1708758259.65625
4.04,1708758259.671875
-0.06,1708758259.6875
-3.65,1708758259.703125
-6.91,1708758259.71875
-10.25,1708758259.734375
-14.14,1708758259.75
-18.9,1708758259.765625
-24.6,1708758259.78125
-30.9,1708758259.796875
-37.21,1708758259.8125
-42.93,1708758259.828125
-47.68,1708758259.84375
-51.51,1708758259.859375
-54.9,1708758259.875
-58.61,1708758259.890625
-63.35,1708758259.90625
-69.56,1708758259.921875
-77.09,1708758259.9375
-85.12,1708758259.953125
-92.14,1708758259.96875
-96.33,1708758259.984375
-95.89,1708758260.0
-89.66,1708758260.015625
-77.5,1708758260.03125
-60.4,1708758260.046875
-40.28,1708758260.0625
-19.47,1708758260.078125
-0.12,1708758260.09375
16.31,1708758260.109375
29.13,1708758260.125
38.44,1708758260.140625
44.7,1708758260.15625
48.54,1708758260.171875
50.52,1708758260.1875
51.15,1708758260.203125
50.82,1708758260.21875
49.94,1708758260.234375
48.84,1708758260.25
47.75,1708758260.265625
46.76,1708758260.28125
45.83,1708758260.296875
44.94,1708758260.3125
44.13,1708758260.328125
43.51,1708758260.34375
43.22,1708758260.359375
43.31,1708758260.375
43.63,1708758260.390625
43.88,1708758260.40625
43.75,1708758260.421875
43.02,1708758260.4375
41.59,1708758260.453125
39.56,1708758260.46875
37.02,1708758260.484375
34.05,1708758260.5
30.63,1708758260.515625
26.74,1708758260.53125
22.44,1708758260.546875
17.86,1708758260.5625
13.22,1708758260.578125
8.75,1708758260.59375
4.55,1708758260.609375
0.56,1708758260.625
-3.4,1708758260.640625
-7.52,1708758260.65625
-11.95,1708758260.671875
-16.7,1708758260.6875
-21.65,1708758260.703125
-26.64,1708758260.71875
-31.54,1708758260.734375
-36.24,1708758260.75
-40.72,1708758260.765625
-45.05,1708758260.78125
-49.43,1708758260.796875
-54.19,1708758260.8125
-59.74,1708758260.828125
-66.35,1708758260.84375
-73.89,1708758260.859375
-81.64,1708758260.875
-88.19,1708758260.890625
-91.74,1708758260.90625
-90.58,1708758260.921875
-83.64,1708758260.9375
-70.91,1708758260.953125
-53.5,1708758260.96875
-33.36,1708758260.984375
-12.77,1708758261.0
6.2,1708758261.015625
22.12,1708758261.03125
34.31,1708758261.046875
42.8,1708758261.0625
48.09,1708758261.078125
50.95,1708758261.09375
52.14,1708758261.109375
52.27,1708758261.125
51.75,1708758261.140625
50.78,1708758261.15625
49.44,1708758261.171875
47.8,1708758261.1875
46.01,1708758261.203125
44.33,1708758261.21875
43.01,1708758261.234375
42.23,1708758261.25
42.0,1708758261.265625
42.21,1708758261.28125
42.72,1708758261.296875
43.38,1708758261.3125
44.04,1708758261.328125
44.48,1708758261.34375
44.4,1708758261.359375
43.45,1708758261.375
41.41,1708758261.390625
38.31,1708758261.40625
34.46,1708758261.421875
30.3,1708758261.4375
26.22,1708758261.453125
22.35,1708758261.46875
18.57,1708758261.484375
14.63,1708758261.5
10.32,1708758261.515625
5.66,1708758261.53125
0.86,1708758261.546875
-3.82,1708758261.5625
-8.21,1708758261.578125
-12.35,1708758261.59375
-16.52,1708758261.609375
-21.02,1708758261.625
-26.07,1708758261.640625
-31.65,1708758261.65625
-37.52,1708758261.671875
-43.3,1708758261.6875
-48.65,1708758261.703125
-53.35,1708758261.71875
-57.43,1708758261.734375
-61.16,1708758261.75
-65.01,1708758261.765625
-69.52,1708758261.78125
-75.17,1708758261.796875
-82.13,1708758261.8125
-90.03,1708758261.828125
-97.79,1708758261.84375
-103.72,1708758261.859375
-105.88,1708758261.875
-102.63,1708758261.890625
-93.16,1708758261.90625
-77.89,1708758261.921875
-58.37,1708758261.9375
-36.91,1708758261.953125
-15.91,1708758261.96875
2.7,1708758261.984375
17.85,1708758262.0
29.3,1708758262.015625
37.51,1708758262.03125
43.23,1708758262.046875
47.21,1708758262.0625
50.06,1708758262.078125
52.15,1708758262.09375
53.66,1708758262.109375
54.7,1708758262.125
55.35,1708758262.140625
55.71,1708758262.15625
55.86,1708758262.171875
55.88,1708758262.1875
55.79,1708758262.203125
55.61,1708758262.21875
55.39,1708758262.234375
55.23,1708758262.25
55.31,1708758262.265625
55.77,1708758262.28125
56.56,1708758262.296875
57.4,1708758262.3125
57.79,1708758262.328125
57.21,1708758262.34375
55.37,1708758262.359375
52.29,1708758262.375
48.34,1708758262.390625
44.04,1708758262.40625
39.85,1708758262.421875
35.95,1708758262.4375
32.21,1708758262.453125
28.36,1708758262.46875
24.14,1708758262.484375
19.43,1708758262.5
14.32,1708758262.515625
9.06,1708758262.53125
3.98,1708758262.546875
-0.61,1708758262.5625
-4.53,1708758262.578125
-7.76,1708758262.59375
-10.53,1708758262.609375
-13.22,1708758262.625
-16.32,1708758262.640625
-20.14,1708758262.65625
-24.76,1708758262.671875
-29.97,1708758262.6875
-35.32,1708758262.703125
-40.3,1708758262.71875
-44.54,1708758262.734375
-47.99,1708758262.75
-50.92,1708758262.765625
-53.85,1708758262.78125
-57.5,1708758262.796875
-62.44,1708758262.8125
-68.89,1708758262.828125
-76.38,1708758262.84375
-83.67,1708758262.859375
-88.92,1708758262.875
-90.17,1708758262.890625
-85.96,1708758262.90625
-75.84,1708758262.921875
-60.57,1708758262.9375
-41.91,1708758262.953125
-22.11,1708758262.96875
-3.33,1708758262.984375
12.84,1708758263.0
25.59,1708758263.015625
34.8,1708758263.03125
40.9,1708758263.046875
44.55,1708758263.0625
46.49,1708758263.078125
47.33,1708758263.09375
47.51,1708758263.109375
47.29,1708758263.125
46.8,1708758263.140625
46.06,1708758263.15625
45.13,1708758263.171875
44.02,1708758263.1875
42.82,1708758263.203125
41.62,1708758263.21875
40.57,1708758263.234375
39.85,1708758263.25
39.64,1708758263.265625
39.99,1708758263.28125
40.79,1708758263.296875
41.69,1708758263.3125
42.17,1708758263.328125
41.76,1708758263.34375
40.16,1708758263.359375
37.41,1708758263.375
33.81,1708758263.390625
29.77,1708758263.40625
25.67,1708758263.421875
21.62,1708758263.4375
17.58,1708758263.453125
13.42,1708758263.46875
9.1,1708758263.484375
4.64,1708758263.5
0.23,1708758263.515625
-3.99,1708758263.53125
-8.0,1708758263.546875
-11.92,1708758263.5625
-15.91,1708758263.578125
-20.14,1708758263.59375
-24.67,1708758263.609375
-29.42,1708758263.625
-34.19,1708758263.640625
-38.71,1708758263.65625
-42.77,1708758263.671875
-46.24,1708758263.6875
-49.24,1708758263.703125
-52.08,1708758263.71875
-55.3,1708758263.734375
-59.53,1708758263.75
-65.21,1708758263.765625
-72.35,1708758263.78125
-80.29,1708758263.796875
-87.66,1708758263.8125
-92.63,1708758263.828125
-93.38,1708758263.84375
-88.65,1708758263.859375
-78.22,1708758263.875
-62.99,1708758263.890625
-44.74,1708758263.90625
-25.61,1708758263.921875
-7.56,1708758263.9375
8.05,1708758263.953125
20.53,1708758263.96875
29.82,1708758263.984375
36.19,1708758264.0
40.06,1708758264.015625
41.9,1708758264.03125
42.17,1708758264.046875
41.38,1708758264.0625
40.01,1708758264.078125
38.53,1708758264.09375
37.29,1708758264.109375
36.41,1708758264.125
35.88,1708758264.140625
35.55,1708758264.15625
35.28,1708758264.171875
35.04,1708758264.1875
34.92,1708758264.203125
35.08,1708758264.21875
35.61,1708758264.234375
36.41,1708758264.25
37.19,1708758264.265625
37.49,1708758264.28125
36.86,1708758264.296875
34.98,1708758264.3125
31.77,1708758264.328125
27.44,1708758264.34375
22.37,1708758264.359375
17.08,1708758264.375
11.99,1708758264.390625
7.35,1708758264.40625
3.15,1708758264.421875
-0.9,1708758264.4375
-5.17,1708758264.453125
-10.01,1708758264.46875
-15.49,1708758264.484375
-21.42,1708758264.5
-27.33,1708758264.515625
-32.75,1708758264.53125
-37.33,1708758264.546875
-41.07,1708758264.5625
-44.33,1708758264.578125
-47.8,1708758264.59375
-52.26,1708758264.609375
-58.29,1708758264.625
-66.0,1708758264.640625
-74.72,1708758264.65625
-83.07,1708758264.671875
-89.13,1708758264.6875
-91.0,1708758264.703125
-87.31,1708758264.71875
-77.77,1708758264.734375
-63.22,1708758264.75
-45.46,1708758264.765625
-26.67,1708758264.78125
-8.9,1708758264.796875
6.42,1708758264.8125
18.65,1708758264.828125
27.81,1708758264.84375
34.37,1708758264.859375
38.96,1708758264.875
42.13,1708758264.890625
44.26,1708758264.90625
45.59,1708758264.921875
46.22,1708758264.9375
46.25,1708758264.953125
45.77,1708758264.96875
44.92,1708758264.984375
43.84,1708758265.0
42.68,1708758265.015625
41.61,1708758265.03125
40.8,1708758265.046875
40.36,1708758265.0625
40.34,1708758265.078125
40.63,1708758265.09375
41.05,1708758265.109375
41.34,1708758265.125
41.21,1708758265.140625
40.45,1708758265.15625
38.96,1708758265.171875
36.76,1708758265.1875
33.96,1708758265.203125
30.76,1708758265.21875
27.3,1708758265.234375
23.67,1708758265.25
19.82,1708758265.265625
15.71,1708758265.28125
11.28,1708758265.296875
6.64,1708758265.3125
2.03,1708758265.328125
-2.33,1708758265.34375
-6.31,1708758265.359375
-10.0,1708758265.375
-13.69,1708758265.390625
-17.67,1708758265.40625
-22.17,1708758265.421875
-27.21,1708758265.4375
-32.59,1708758265.453125
-38.01,1708758265.46875
-43.16,1708758265.484375
-47.87,1708758265.5
-52.19,1708758265.515625
-56.46,1708758265.53125
-61.2,1708758265.546875
-67.03,1708758265.5625
-74.31,1708758265.578125
-82.93,1708758265.59375
-91.96,1708758265.609375
-99.78,1708758265.625
-104.36,1708758265.640625
-103.86,1708758265.65625
-97.24,1708758265.671875
-84.59,1708758265.6875
-67.17,1708758265.703125
-47.05,1708758265.71875
-26.55,1708758265.734375
-7.68,1708758265.75
8.2,1708758265.765625
20.61,1708758265.78125
29.75,1708758265.796875
36.29,1708758265.8125
40.99,1708758265.828125
44.47,1708758265.84375
47.03,1708758265.859375
48.74,1708758265.875
49.55,1708758265.890625
49.44,1708758265.90625
48.5,1708758265.921875
46.96,1708758265.9375
45.1,1708758265.953125
43.17,1708758265.96875
41.35,1708758265.984375
39.77,1708758266.0
38.56,1708758266.015625
37.8,1708758266.03125
37.46,1708758266.046875
37.4,1708758266.0625
37.33,1708758266.078125
36.95,1708758266.09375
35.95,1708758266.109375
34.15,1708758266.125
31.52,1708758266.140625
28.09,1708758266.15625
24.01,1708758266.171875
19.43,1708758266.1875
14.54,1708758266.203125
9.48,1708758266.21875
4.33,1708758266.234375
-0.9,1708758266.25
-6.26,1708758266.265625
-11.74,1708758266.28125
-17.28,1708758266.296875
-22.7,1708758266.3125
-27.79,1708758266.328125
-32.38,1708758266.34375
-36.57,1708758266.359375
-40.72,1708758266.375
-45.46,1708758266.390625
-51.43,1708758266.40625
-58.95,1708758266.421875
-67.8,1708758266.4375
-77.16,1708758266.453125
-85.81,1708758266.46875
-92.61,1708758266.484375
-96.92,1708758266.5
-98.97,1708758266.515625
-99.73,1708758266.53125
-100.68,1708758266.546875
-103.17,1708758266.5625
-107.88,1708758266.578125
-114.35,1708758266.59375
-121.01,1708758266.609375
-125.55,1708758266.625
-125.6,1708758266.640625
-119.41,1708758266.65625
-106.37,1708758266.671875
-87.07,1708758266.6875
-62.98,1708758266.703125
-36.09,1708758266.71875
-8.36,1708758266.734375
18.45,1708758266.75
42.91,1708758266.765625
63.97,1708758266.78125
81.02,1708758266.796875
93.94,1708758266.8125
103.11,1708758266.828125
109.23,1708758266.84375
113.02,1708758266.859375
115.03,1708758266.875
115.57,1708758266.890625
114.8,1708758266.90625
112.91,1708758266.921875
110.25,1708758266.9375
107.23,1708758266.953125
104.15,1708758266.96875
101.14,1708758266.984375
98.22,1708758267.0
95.4,1708758267.015625
92.84,1708758267.03125
90.81,1708758267.046875
89.45,1708758267.0625
88.58,1708758267.078125
87.64,1708758267.09375
85.82,1708758267.109375
82.41,1708758267.125
77.13,1708758267.140625
70.28,1708758267.15625
62.6,1708758267.171875
55.01,1708758267.1875
48.2,1708758267.203125
42.47,1708758267.21875
37.66,1708758267.234375
33.3,1708758267.25
28.91,1708758267.265625
24.17,1708758267.28125
19.09,1708758267.296875
13.96,1708758267.3125
9.25,1708758267.328125
5.3,1708758267.34375
2.18,1708758267.359375
-0.47,1708758267.375
-3.4,1708758267.390625
-7.57,1708758267.40625
-13.77,1708758267.421875
-22.28,1708758267.4375
-32.53,1708758267.453125
-43.07,1708758267.46875
-51.79,1708758267.484375
-56.5,1708758267.5
-55.5,1708758267.515625
-48.16,1708758267.53125
-35.1,1708758267.546875
-18.03,1708758267.5625
0.74,1708758267.578125
18.95,1708758267.59375
34.88,1708758267.609375
47.61,1708758267.625
56.97,1708758267.640625
63.3,1708758267.65625
67.08,1708758267.671875
68.78,1708758267.6875
68.79,1708758267.703125
67.54,1708758267.71875
65.51,1708758267.734375
63.26,1708758267.75
61.28,1708758267.765625
59.83,1708758267.78125
58.85,1708758267.796875
58.03,1708758267.8125
57.01,1708758267.828125
55.55,1708758267.84375
53.67,1708758267.859375
51.58,1708758267.875
49.52,1708758267.890625
47.63,1708758267.90625
45.83,1708758267.921875
43.86,1708758267.9375
41.4,1708758267.953125
38.17,1708758267.96875
34.05,1708758267.984375
29.09,1708758268.0
23.53,1708758268.015625
17.71,1708758268.03125
11.95,1708758268.046875
6.41,1708758268.0625
1.06,1708758268.078125
-4.34,1708758268.09375
-10.12,1708758268.109375
-16.48,1708758268.125
-23.42,1708758268.140625
-30.67,1708758268.15625
-37.79,1708758268.171875
-44.33,1708758268.1875
-50.03,1708758268.203125
-54.84,1708758268.21875
-59.02,1708758268.234375
-63.03,1708758268.25
-67.45,1708758268.265625
-72.89,1708758268.28125
-79.75,1708758268.296875
-87.97,1708758268.3125
-96.79,1708758268.328125
-104.69,1708758268.34375
-109.61,1708758268.359375
-109.53,1708758268.375
-103.18,1708758268.390625
-90.5,1708758268.40625
-72.81,1708758268.421875
-52.45,1708758268.4375
-32.04,1708758268.453125
-13.76,1708758268.46875
1.13,1708758268.484375
12.34,1708758268.5
20.32,1708758268.515625
25.81,1708758268.53125
29.54,1708758268.546875
32.08,1708758268.5625
33.81,1708758268.578125
35.0,1708758268.59375
35.8,1708758268.609375
36.3,1708758268.625
36.5,1708758268.640625
36.42,1708758268.65625
36.09,1708758268.671875
35.65,1708758268.6875
35.3,1708758268.703125
35.25,1708758268.71875
35.6,1708758268.734375
36.32,1708758268.75
37.2,1708758268.765625
37.96,1708758268.78125
38.28,1708758268.796875
37.92,1708758268.8125
36.69,1708758268.828125
34.53,1708758268.84375
31.41,1708758268.859375
27.41,1708758268.875
22.68,1708758268.890625
17.41,1708758268.90625
11.82,1708758268.921875
6.11,1708758268.9375
0.49,1708758268.953125
-4.9,1708758268.96875
-9.95,1708758268.984375
-14.66,1708758269.0
-19.11,1708758269.015625
-23.51,1708758269.03125
-28.03,1708758269.046875
-32.83,1708758269.0625
-37.89,1708758269.078125
-43.03,1708758269.09375
-47.98,1708758269.109375
-52.47,1708758269.125
-56.41,1708758269.140625
-59.88,1708758269.15625
-63.22,1708758269.171875
-66.94,1708758269.1875
-71.64,1708758269.203125
-77.77,1708758269.21875
-85.34,1708758269.234375
-93.72,1708758269.25
-101.53,1708758269.265625
-106.92,1708758269.28125
-108.0,1708758269.296875
-103.48,1708758269.3125
-93.1,1708758269.328125
-77.73,1708758269.34375
-59.16,1708758269.359375
-39.54,1708758269.375
-20.87,1708758269.390625
-4.62,1708758269.40625
8.46,1708758269.421875
18.25,1708758269.4375
25.05,1708758269.453125
29.4,1708758269.46875
31.88,1708758269.484375
33.07,1708758269.5
33.47,1708758269.515625
33.48,1708758269.53125
33.41,1708758269.546875
33.43,1708758269.5625
33.56,1708758269.578125
33.7,1708758269.59375
33.66,1708758269.609375
33.35,1708758269.625
32.81,1708758269.640625
32.3,1708758269.65625
32.11,1708758269.671875
32.47,1708758269.6875
33.35,1708758269.703125
34.46,1708758269.71875
35.31,1708758269.734375
35.38,1708758269.75
34.31,1708758269.765625
31.94,1708758269.78125
28.44,1708758269.796875
24.13,1708758269.8125
19.44,1708758269.828125
14.75,1708758269.84375
10.26,1708758269.859375
5.95,1708758269.875
1.6,1708758269.890625
-3.08,1708758269.90625
-8.3,1708758269.921875
-14.04,1708758269.9375
-20.1,1708758269.953125
-26.11,1708758269.96875
-31.76,1708758269.984375
-36.85,1708758270.0
-41.45,1708758270.015625
-45.8,1708758270.03125
-50.25,1708758270.046875
-55.23,1708758270.0625
-61.08,1708758270.078125
-67.97,1708758270.09375
-75.7,1708758270.109375
-83.45,1708758270.125
-89.83,1708758270.140625
-92.95,1708758270.15625
-91.03,1708758270.171875
-82.97,1708758270.1875
-68.86,1708758270.203125
-50.06,1708758270.21875
-28.85,1708758270.234375
-7.76,1708758270.25
11.17,1708758270.265625
26.7,1708758270.28125
38.56,1708758270.296875
47.05,1708758270.3125
52.74,1708758270.328125
56.23,1708758270.34375
58.03,1708758270.359375
58.62,1708758270.375
58.38,1708758270.390625
57.63,1708758270.40625
56.56,1708758270.421875
55.26,1708758270.4375
53.72,1708758270.453125
51.93,1708758270.46875
49.95,1708758270.484375
47.86,1708758270.5
45.81,1708758270.515625
43.92,1708758270.53125
42.34,1708758270.546875
41.16,1708758270.5625
40.41,1708758270.578125
39.99,1708758270.59375
39.6,1708758270.609375
38.81,1708758270.625
37.14,1708758270.640625
34.26,1708758270.65625
30.09,1708758270.671875
24.9,1708758270.6875
19.19,1708758270.703125
13.53,1708758270.71875
8.34,1708758270.734375
3.74,1708758270.75
-0.46,1708758270.765625
-4.74,1708758270.78125
-9.56,1708758270.796875
-15.21,1708758270.8125
-21.59,1708758270.828125
-28.26,1708758270.84375
-34.61,1708758270.859375
-40.09,1708758270.875
-44.47,1708758270.890625
-47.88,1708758270.90625
-50.82,1708758270.921875
-53.94,1708758270.9375
-57.89,1708758270.953125
-63.2,1708758270.96875
-70.03,1708758270.984375
-78.04,1708758271.0
-86.26,1708758271.015625
-93.07,1708758271.03125
-96.57,1708758271.046875
-95.0,1708758271.0625
-87.42,1708758271.078125
-73.99,1708758271.09375
-56.07,1708758271.109375
-35.78,1708758271.125
-15.43,1708758271.140625
3.06,1708758271.15625
18.48,1708758271.171875
30.46,1708758271.1875
39.18,1708758271.203125
45.22,1708758271.21875
49.26,1708758271.234375
51.89,1708758271.25
53.56,1708758271.265625
54.5,1708758271.28125
54.8,1708758271.296875
54.45,1708758271.3125
53.52,1708758271.328125
52.15,1708758271.34375
50.56,1708758271.359375
49.0,1708758271.375
47.65,1708758271.390625
46.61,1708758271.40625
45.88,1708758271.421875
45.41,1708758271.4375
45.17,1708758271.453125
45.03,1708758271.46875
44.86,1708758271.484375
44.42,1708758271.5
43.48,1708758271.515625
41.81,1708758271.53125
39.34,1708758271.546875
36.1,1708758271.5625
32.25,1708758271.578125
27.96,1708758271.59375
23.37,1708758271.609375
18.56,1708758271.625
13.58,1708758271.640625
8.52,1708758271.65625
3.53,1708758271.671875
-1.27,1708758271.6875
-5.87,1708758271.703125
-10.38,1708758271.71875
-15.04,1708758271.734375
-20.04,1708758271.75
-25.45,1708758271.765625
-31.1,1708758271.78125
-36.68,1708758271.796875
-41.84,1708758271.8125
-46.35,1708758271.828125
-50.23,1708758271.84375
-53.76,1708758271.859375
-57.38,1708758271.875
-61.61,1708758271.890625
-66.88,1708758271.90625
-73.32,1708758271.921875
-80.62,1708758271.9375
-87.83,1708758271.953125
-93.45,1708758271.96875
-95.68,1708758271.984375
-92.91,1708758272.0
-84.24,1708758272.015625
-69.87,1708758272.03125
-51.19,1708758272.046875
-30.31,1708758272.0625
-9.6,1708758272.078125
8.96,1708758272.09375
24.15,1708758272.109375
35.59,1708758272.125
43.58,1708758272.140625
48.75,1708758272.15625
51.83,1708758272.171875
53.4,1708758272.1875
53.88,1708758272.203125
53.55,1708758272.21875
52.56,1708758272.234375
51.07,1708758272.25
49.22,1708758272.265625
47.14,1708758272.28125
44.98,1708758272.296875
42.9,1708758272.3125
41.07,1708758272.328125
39.68,1708758272.34375
38.83,1708758272.359375
38.59,1708758272.375
38.86,1708758272.390625
39.36,1708758272.40625
39.76,1708758272.421875
39.73,1708758272.4375
39.0,1708758272.453125
37.42,1708758272.46875
34.94,1708758272.484375
31.53,1708758272.5
27.24,1708758272.515625
22.24,1708758272.53125
16.82,1708758272.546875
11.37,1708758272.5625
6.25,1708758272.578125
1.66,1708758272.59375
-2.48,1708758272.609375
-6.47,1708758272.625
-10.69,1708758272.640625
-15.32,1708758272.65625
-20.33,1708758272.671875
-25.48,1708758272.6875
-30.4,1708758272.703125
-34.89,1708758272.71875
-38.86,1708758272.734375
-42.46,1708758272.75
-45.88,1708758272.765625
-49.39,1708758272.78125
-53.26,1708758272.796875
-57.79,1708758272.8125
-63.26,1708758272.828125
-69.68,1708758272.84375
-76.58,1708758272.859375
-82.82,1708758272.875
-86.76,1708758272.890625
-86.6,1708758272.90625
-81.1,1708758272.921875
-69.99,1708758272.9375
-54.15,1708758272.953125
-35.4,1708758272.96875
-15.89,1708758272.984375
2.44,1708758273.0
18.28,1708758273.015625
31.01,1708758273.03125
40.59,1708758273.046875
47.28,1708758273.0625
51.48,1708758273.078125
53.63,1708758273.09375
54.19,1708758273.109375
53.61,1708758273.125
52.3,1708758273.140625
50.58,1708758273.15625
48.65,1708758273.171875
46.62,1708758273.1875
44.59,1708758273.203125
42.65,1708758273.21875
40.92,1708758273.234375
39.54,1708758273.25
38.55,1708758273.265625
37.91,1708758273.28125
37.5,1708758273.296875
37.14,1708758273.3125
36.73,1708758273.328125
36.15,1708758273.34375
35.26,1708758273.359375
33.89,1708758273.375
31.79,1708758273.390625
28.74,1708758273.40625
24.73,1708758273.421875
19.97,1708758273.4375
14.89,1708758273.453125
9.98,1708758273.46875
5.56,1708758273.484375
1.63,1708758273.5
-2.1,1708758273.515625
-6.06,1708758273.53125
-10.62,1708758273.546875
-15.93,1708758273.5625
-21.84,1708758273.578125
-27.99,1708758273.59375
-33.99,1708758273.609375
-39.55,1708758273.625
-44.56,1708758273.640625
-49.12,1708758273.65625
-53.51,1708758273.671875
-58.14,1708758273.6875
-63.43,1708758273.703125
-69.68,1708758273.71875
-76.9,1708758273.734375
-84.69,1708758273.75
-92.15,1708758273.765625
-97.84,1708758273.78125
-100.1,1708758273.796875
-97.42,1708758273.8125
-88.88,1708758273.828125
-74.59,1708758273.84375
-55.76,1708758273.859375
-34.48,1708758273.875
-13.16,1708758273.890625
6.08,1708758273.90625
21.86,1708758273.921875
33.69,1708758273.9375
41.84,1708758273.953125
46.98,1708758273.96875
49.9,1708758273.984375
51.31,1708758274.0
51.73,1708758274.015625
51.56,1708758274.03125
51.07,1708758274.046875
50.44,1708758274.0625
49.74,1708758274.078125
48.98,1708758274.09375
48.16,1708758274.109375
47.29,1708758274.125
46.42,1708758274.140625
45.66,1708758274.15625
45.08,1708758274.171875
44.76,1708758274.1875
44.74,1708758274.203125
44.95,1708758274.21875
45.23,1708758274.234375
45.25,1708758274.25
44.63,1708758274.265625
43.05,1708758274.28125
40.37,1708758274.296875
36.74,1708758274.3125
32.46,1708758274.328125
27.87,1708758274.34375
23.19,1708758274.359375
18.45,1708758274.375
13.58,1708758274.390625
8.55,1708758274.40625
3.43,1708758274.421875
-1.64,1708758274.4375
-6.57,1708758274.453125
-11.44,1708758274.46875
-16.4,1708758274.484375
-21.64,1708758274.5
-27.19,1708758274.515625
-32.83,1708758274.53125
-38.21,1708758274.546875
-43.02,1708758274.5625
-47.17,1708758274.578125
-50.89,1708758274.59375
-54.7,1708758274.609375
-59.25,1708758274.625
-65.03,1708758274.640625
-72.22,1708758274.65625
-80.47,1708758274.671875
-88.77,1708758274.6875
-95.57,1708758274.703125
-99.04,1708758274.71875
-97.54,1708758274.734375
-90.11,1708758274.75
-76.87,1708758274.765625
-59.04,1708758274.78125
-38.69,1708758274.796875
-18.16,1708758274.8125
0.52,1708758274.828125
16.03,1708758274.84375
27.91,1708758274.859375
36.42,1708758274.875
42.14,1708758274.890625
45.76,1708758274.90625
47.81,1708758274.921875
48.7,1708758274.9375
48.72,1708758274.953125
48.2,1708758274.96875
47.48,1708758274.984375
46.85,1708758275.0
46.43,1708758275.015625
46.22,1708758275.03125
46.04,1708758275.046875
45.75,1708758275.0625
45.31,1708758275.078125
44.85,1708758275.09375
44.58,1708758275.109375
44.62,1708758275.125
44.91,1708758275.140625
45.16,1708758275.15625
44.99,1708758275.171875
44.08,1708758275.1875
42.33,1708758275.203125
39.83,1708758275.21875
36.82,1708758275.234375
33.55,1708758275.25
30.12,1708758275.265625
26.49,1708758275.28125
22.57,1708758275.296875
18.28,1708758275.3125
13.68,1708758275.328125
8.9,1708758275.34375
4.12,1708758275.359375
-0.57,1708758275.375
-5.24,1708758275.390625
-10.05,1708758275.40625
-15.17,1708758275.421875
-20.65,1708758275.4375
-26.35,1708758275.453125
-32.02,1708758275.46875
-37.3,1708758275.484375
-41.93,1708758275.5
-45.83,1708758275.515625
-49.21,1708758275.53125
-52.55,1708758275.546875
-56.52,1708758275.5625
-61.78,1708758275.578125
-68.67,1708758275.59375
-76.98,1708758275.609375
-85.65,1708758275.625
-92.95,1708758275.640625
-96.82,1708758275.65625
-95.47,1708758275.671875
-87.89,1708758275.6875
-74.33,1708758275.703125
-56.17,1708758275.71875
-35.61,1708758275.734375
-15.01,1708758275.75
3.67,1708758275.765625
19.2,1708758275.78125
31.14,1708758275.796875
39.65,1708758275.8125
45.21,1708758275.828125
48.34,1708758275.84375
49.62,1708758275.859375
49.54,1708758275.875
48.59,1708758275.890625
47.15,1708758275.90625
45.53,1708758275.921875
43.88,1708758275.9375
42.22,1708758275.953125
40.54,1708758275.96875
38.87,1708758275.984375
37.32,1708758276.0
36.09,1708758276.015625
35.41,1708758276.03125
35.4,1708758276.046875
36.02,1708758276.0625
36.96,1708758276.078125
37.8,1708758276.09375
38.0,1708758276.109375
37.11,1708758276.125
34.89,1708758276.140625
31.36,1708758276.15625
26.83,1708758276.171875
21.79,1708758276.1875
16.74,1708758276.203125
12.03,1708758276.21875
7.69,1708758276.234375
3.48,1708758276.25
-1.02,1708758276.265625
-6.18,1708758276.28125
-12.05,1708758276.296875
-18.34,1708758276.3125
-24.55,1708758276.328125
-30.16,1708758276.34375
-34.91,1708758276.359375
-38.89,1708758276.375
-42.54,1708758276.390625
-46.45,1708758276.40625
-51.23,1708758276.421875
-57.27,1708758276.4375
-64.66,1708758276.453125
-72.97,1708758276.46875
-81.14,1708758276.484375
-87.55,1708758276.5
-90.3,1708758276.515625
-87.79,1708758276.53125
-79.24,1708758276.546875
-65.06,1708758276.5625
-46.81,1708758276.578125
-26.69,1708758276.59375
-6.99,1708758276.609375
10.58,1708758276.625
25.04,1708758276.640625
36.17,1708758276.65625
44.19,1708758276.671875
49.54,1708758276.6875
52.72,1708758276.703125
54.16,1708758276.71875
54.28,1708758276.734375
53.5,1708758276.75
52.2,1708758276.765625
50.61,1708758276.78125
48.95,1708758276.796875
47.3,1708758276.8125
45.74,1708758276.828125
44.29,1708758276.84375
43.03,1708758276.859375
41.98,1708758276.875
41.22,1708758276.890625
40.75,1708758276.90625
40.51,1708758276.921875
40.42,1708758276.9375
40.24,1708758276.953125
39.69,1708758276.96875
38.39,1708758276.984375
36.01,1708758277.0
32.36,1708758277.015625
27.47,1708758277.03125
21.66,1708758277.046875
15.43,1708758277.0625
9.39,1708758277.078125
3.97,1708758277.09375
-0.61,1708758277.109375
-4.51,1708758277.125
-8.14,1708758277.140625
-12.03,1708758277.15625
-16.6,1708758277.171875
-21.99,1708758277.1875
-27.99,1708758277.203125
-34.09,1708758277.21875
-39.77,1708758277.234375
-44.62,1708758277.25
-48.58,1708758277.265625
-51.93,1708758277.28125
-55.23,1708758277.296875
-59.19,1708758277.3125
-64.46,1708758277.328125
-71.41,1708758277.34375
-79.86,1708758277.359375
-88.93,1708758277.375
-96.98,1708758277.390625
-101.91,1708758277.40625
-101.69,1708758277.421875
-95.02,1708758277.4375
-81.9,1708758277.453125
-63.61,1708758277.46875
-42.48,1708758277.484375
-21.14,1708758277.5
-1.79,1708758277.515625
14.23,1708758277.53125
26.61,1708758277.546875
35.76,1708758277.5625
42.41,1708758277.578125
47.24,1708758277.59375
50.7,1708758277.609375
53.04,1708758277.625
54.42,1708758277.640625
55.02,1708758277.65625
55.06,1708758277.671875
54.74,1708758277.6875
54.2,1708758277.703125
53.45,1708758277.71875
52.51,1708758277.734375
51.45,1708758277.75
50.47,1708758277.765625
49.83,1708758277.78125
49.73,1708758277.796875
50.18,1708758277.8125
50.93,1708758277.828125
51.52,1708758277.84375
51.49,1708758277.859375
50.5,1708758277.875
48.47,1708758277.890625
45.48,1708758277.90625
41.74,1708758277.921875
37.48,1708758277.9375
32.86,1708758277.953125
28.02,1708758277.96875
23.06,1708758277.984375
18.05,1708758278.0
13.08,1708758278.015625
8.14,1708758278.03125
3.19,1708758278.046875
-1.88,1708758278.0625
-7.16,1708758278.078125
-12.73,1708758278.09375
-18.54,1708758278.109375
-24.48,1708758278.125
-30.34,1708758278.140625
-35.93,1708758278.15625
-41.09,1708758278.171875
-45.79,1708758278.1875
-50.15,1708758278.203125
-54.46,1708758278.21875
-59.21,1708758278.234375
-64.94,1708758278.25
-72.11,1708758278.265625
-80.76,1708758278.28125
-90.24,1708758278.296875
-99.09,1708758278.3125
-105.23,1708758278.328125
-106.46,1708758278.34375
-101.25,1708758278.359375
-89.23,1708758278.375
-71.52,1708758278.390625
-50.34,1708758278.40625
-28.39,1708758278.421875
-8.04,1708758278.4375
9.2,1708758278.453125
22.81,1708758278.46875
33.11,1708758278.484375
40.79,1708758278.5
46.6,1708758278.515625
51.03,1708758278.53125
54.34,1708758278.546875
56.63,1708758278.5625
57.95,1708758278.578125
58.43,1708758278.59375
58.28,1708758278.609375
57.7,1708758278.625
56.89,1708758278.640625
55.95,1708758278.65625
54.96,1708758278.671875
54.04,1708758278.6875
53.35,1708758278.703125
53.04,1708758278.71875
53.1,1708758278.734375
53.36,1708758278.75
53.45,1708758278.765625
52.96,1708758278.78125
51.6,1708758278.796875
49.25,1708758278.8125
45.98,1708758278.828125
41.94,1708758278.84375
37.3,1708758278.859375
32.22,1708758278.875
26.85,1708758278.890625
21.34,1708758278.90625
15.89,1708758278.921875
10.61,1708758278.9375
5.58,1708758278.953125
0.72,1708758278.96875
-4.12,1708758278.984375
-9.12,1708758279.0
-14.44,1708758279.015625
-20.1,1708758279.03125
-26.02,1708758279.046875
-31.95,1708758279.0625
-37.59,1708758279.078125
-42.67,1708758279.09375
-47.09,1708758279.109375
-50.97,1708758279.125
-54.76,1708758279.140625
-59.11,1708758279.15625
-64.78,1708758279.171875
-72.21,1708758279.1875
-81.23,1708758279.203125
-90.75,1708758279.21875
-98.83,1708758279.234375
-103.11,1708758279.25
-101.48,1708758279.265625
-92.83,1708758279.28125
-77.57,1708758279.296875
-57.51,1708758279.3125
-35.38,1708758279.328125
-13.91,1708758279.34375
4.84,1708758279.359375
19.97,1708758279.375
31.52,1708758279.390625
40.12,1708758279.40625
46.5,1708758279.421875
51.13,1708758279.4375
54.26,1708758279.453125
56.02,1708758279.46875
56.59,1708758279.484375
56.29,1708758279.5
55.51,1708758279.515625
54.58,1708758279.53125
53.67,1708758279.546875
52.82,1708758279.5625
52.01,1708758279.578125
51.28,1708758279.59375
50.77,1708758279.609375
50.65,1708758279.625
50.96,1708758279.640625
51.57,1708758279.65625
52.12,1708758279.671875
52.17,1708758279.6875
51.38,1708758279.703125
49.55,1708758279.71875
46.77,1708758279.734375
43.22,1708758279.75
39.16,1708758279.765625
34.76,1708758279.78125
30.12,1708758279.796875
25.34,1708758279.8125
20.5,1708758279.828125
15.72,1708758279.84375
11.15,1708758279.859375
6.84,1708758279.875
2.72,1708758279.890625
-1.4,1708758279.90625
-5.74,1708758279.921875
-10.49,1708758279.9375
-15.71,1708758279.953125
-21.35,1708758279.96875
-27.25,1708758279.984375
-33.19,1708758280.0
-38.89,1708758280.015625
-44.15,1708758280.03125
-48.84,1708758280.046875
-53.07,1708758280.0625
-57.27,1708758280.078125
-62.13,1708758280.09375
-68.45,1708758280.109375
-76.73,1708758280.125
-86.8,1708758280.140625
-97.5,1708758280.15625
-106.78,1708758280.171875
-112.16,1708758280.1875
-111.51,1708758280.203125
-103.73,1708758280.21875
-89.21,1708758280.234375
-69.72,1708758280.25
-47.82,1708758280.265625
-26.13,1708758280.28125
-6.64,1708758280.296875
9.65,1708758280.3125
22.62,1708758280.328125
32.76,1708758280.34375
40.74,1708758280.359375
47.13,1708758280.375
52.29,1708758280.390625
56.39,1708758280.40625
59.49,1708758280.421875
61.61,1708758280.4375
62.78,1708758280.453125
63.07,1708758280.46875
62.58,1708758280.484375
61.51,1708758280.5
60.13,1708758280.515625
58.75,1708758280.53125
57.61,1708758280.546875
56.88,1708758280.5625
56.58,1708758280.578125
56.66,1708758280.59375
56.94,1708758280.609375
57.22,1708758280.625
57.19,1708758280.640625
56.49,1708758280.65625
54.79,1708758280.671875
51.91,1708758280.6875
47.97,1708758280.703125
43.39,1708758280.71875
38.79,1708758280.734375
34.71,1708758280.75
31.41,1708758280.765625
28.76,1708758280.78125
26.28,1708758280.796875
23.45,1708758280.8125
19.88,1708758280.828125
15.48,1708758280.84375
10.47,1708758280.859375
5.27,1708758280.875
0.28,1708758280.890625
-4.21,1708758280.90625
-8.16,1708758280.921875
-11.77,1708758280.9375
-15.38,1708758280.953125
-19.36,1708758280.96875
-23.98,1708758280.984375
-29.29,1708758281.0
-35.09,1708758281.015625
-41.0,1708758281.03125
-46.63,1708758281.046875
-51.72,1708758281.0625
-56.26,1708758281.078125
-60.56,1708758281.09375
-65.13,1708758281.109375
-70.58,1708758281.125
-77.4,1708758281.140625
-85.7,1708758281.15625
-95.03,1708758281.171875
-104.21,1708758281.1875
-111.46,1708758281.203125
-114.71,1708758281.21875
-112.17,1708758281.234375
-102.92,1708758281.25
-87.33,1708758281.265625
-67.06,1708758281.28125
-44.55,1708758281.296875
-22.38,1708758281.3125
-2.62,1708758281.328125
13.63,1708758281.34375
26.14,1708758281.359375
35.37,1708758281.375
42.06,1708758281.390625
46.93,1708758281.40625
50.52,1708758281.421875
53.15,1708758281.4375
54.99,1708758281.453125
56.14,1708758281.46875
56.67,1708758281.484375
56.69,1708758281.5
56.33,1708758281.515625
55.71,1708758281.53125
54.95,1708758281.546875
54.14,1708758281.5625
53.41,1708758281.578125
52.97,1708758281.59375
53.08,1708758281.609375
53.92,1708758281.625
55.39,1708758281.640625
57.09,1708758281.65625
58.35,1708758281.671875
58.45,1708758281.6875
56.92,1708758281.703125
53.74,1708758281.71875
49.32,1708758281.734375
44.37,1708758281.75
39.58,1708758281.765625
35.45,1708758281.78125
32.09,1708758281.796875
29.26,1708758281.8125
26.51,1708758281.828125
23.34,1708758281.84375
19.42,1708758281.859375
14.74,1708758281.875
9.62,1708758281.890625
4.55,1708758281.90625
-0.01,1708758281.921875
-3.91,1708758281.9375
-7.35,1708758281.953125
-10.79,1708758281.96875
-14.74,1708758281.984375
-19.49,1708758282.0
-24.94,1708758282.015625
-30.73,1708758282.03125
-36.36,1708758282.046875
-41.41,1708758282.0625
-45.72,1708758282.078125
-49.42,1708758282.09375
-52.85,1708758282.109375
-56.52,1708758282.125
-61.03,1708758282.140625
-66.87,1708758282.15625
-74.17,1708758282.171875
-82.45,1708758282.1875
-90.43,1708758282.203125
-96.23,1708758282.21875
-97.74,1708758282.234375
-93.38,1708758282.25
-82.65,1708758282.265625
-66.4,1708758282.28125
-46.6,1708758282.296875
-25.71,1708758282.3125
-6.03,1708758282.328125
10.91,1708758282.34375
24.47,1708758282.359375
34.74,1708758282.375
42.19,1708758282.390625
47.28,1708758282.40625
50.41,1708758282.421875
51.85,1708758282.4375
51.9,1708758282.453125
50.94,1708758282.46875
49.47,1708758282.484375
47.92,1708758282.5
46.57,1708758282.515625
45.49,1708758282.53125
44.55,1708758282.546875
43.56,1708758282.5625
42.45,1708758282.578125
41.27,1708758282.59375
40.16,1708758282.609375
39.28,1708758282.625
38.63,1708758282.640625
38.06,1708758282.65625
37.24,1708758282.671875
35.88,1708758282.6875
33.74,1708758282.703125
30.74,1708758282.71875
26.9,1708758282.734375
22.39,1708758282.75
17.45,1708758282.765625
12.35,1708758282.78125
7.42,1708758282.796875
2.88,1708758282.8125
-1.22,1708758282.828125
-5.02,1708758282.84375
-8.85,1708758282.859375
-13.04,1708758282.875
-17.81,1708758282.890625
-23.13,1708758282.90625
-28.72,1708758282.921875
-34.17,1708758282.9375
-39.1,1708758282.953125
-43.29,1708758282.96875
-46.79,1708758282.984375
-49.88,1708758283.0
-53.07,1708758283.015625
-56.95,1708758283.03125
-62.1,1708758283.046875
-68.76,1708758283.0625
-76.65,1708758283.078125
-84.68,1708758283.09375
-91.12,1708758283.109375
-94.0,1708758283.125
-91.65,1708758283.140625
-83.34,1708758283.15625
-69.5,1708758283.171875
-51.68,1708758283.1875
-32.01,1708758283.203125
-12.65,1708758283.21875
4.69,1708758283.234375
19.03,1708758283.25
30.07,1708758283.265625
38.05,1708758283.28125
43.55,1708758283.296875
47.27,1708758283.3125
49.8,1708758283.328125
51.6,1708758283.34375
52.85,1708758283.359375
53.61,1708758283.375
53.81,1708758283.390625
53.44,1708758283.40625
52.59,1708758283.421875
51.44,1708758283.4375
50.2,1708758283.453125
49.04,1708758283.46875
48.1,1708758283.484375
47.48,1708758283.5
47.27,1708758283.515625
47.44,1708758283.53125
47.84,1708758283.546875
48.13,1708758283.5625
47.85,1708758283.578125
46.57,1708758283.59375
44.06,1708758283.609375
40.4,1708758283.625
35.89,1708758283.640625
30.98,1708758283.65625
26.03,1708758283.671875
21.22,1708758283.6875
16.49,1708758283.703125
11.65,1708758283.71875
6.52,1708758283.734375
1.08,1708758283.75
-4.51,1708758283.765625
-9.95,1708758283.78125
-14.96,1708758283.796875
-19.4,1708758283.8125
-23.4,1708758283.828125
-27.34,1708758283.84375
-31.63,1708758283.859375
-36.54,1708758283.875
-42.02,1708758283.890625
-47.73,1708758283.90625
-53.15,1708758283.921875
-57.89,1708758283.9375
-61.85,1708758283.953125
-65.31,1708758283.96875
-68.83,1708758283.984375
-73.06,1708758284.0
-78.52,1708758284.015625
-85.37,1708758284.03125
-93.22,1708758284.046875
-100.99,1708758284.0625
-106.99,1708758284.078125
-109.22,1708758284.09375
-105.94,1708758284.109375
-96.24,1708758284.125
-80.54,1708758284.140625
-60.57,1708758284.15625
-38.83,1708758284.171875
-17.9,1708758284.1875
0.38,1708758284.203125
15.14,1708758284.21875
26.48,1708758284.234375
35.05,1708758284.25
41.55,1708758284.265625
46.46,1708758284.28125
50.06,1708758284.296875
52.51,1708758284.3125
54.02,1708758284.328125
54.86,1708758284.34375
55.32,1708758284.359375
55.59,1708758284.375
55.65,1708758284.390625
55.37,1708758284.40625
54.65,1708758284.421875
53.53,1708758284.4375
52.24,1708758284.453125
51.17,1708758284.46875
50.56,1708758284.484375
50.46,1708758284.5
50.57,1708758284.515625
50.43,1708758284.53125
49.54,1708758284.546875
47.64,1708758284.5625
44.75,1708758284.578125
41.14,1708758284.59375
37.16,1708758284.609375
33.13,1708758284.625
29.21,1708758284.640625
25.43,1708758284.65625
21.68,1708758284.671875
17.83,1708758284.6875
13.74,1708758284.703125
9.35,1708758284.71875
4.7,1708758284.734375
0.02,1708758284.75
-4.43,1708758284.765625
-8.42,1708758284.78125
-11.94,1708758284.796875
-15.22,1708758284.8125
-18.65,1708758284.828125
-22.58,1708758284.84375
-27.15,1708758284.859375
-32.12,1708758284.875
-37.04,1708758284.890625
-41.37,1708758284.90625
-44.8,1708758284.921875
-47.43,1708758284.9375
-49.81,1708758284.953125
-52.73,1708758284.96875
-56.97,1708758284.984375
-62.98,1708758285.0
-70.59,1708758285.015625
-79.0,1708758285.03125
-86.77,1708758285.046875
-92.09,1708758285.0625
-93.25,1708758285.078125
-89.04,1708758285.09375
-79.14,1708758285.109375
-64.32,1708758285.125
-46.22,1708758285.140625
-27.02,1708758285.15625
-8.8,1708758285.171875
6.88,1708758285.1875
19.27,1708758285.203125
28.44,1708758285.21875
34.95,1708758285.234375
39.54,1708758285.25
42.83,1708758285.265625
45.17,1708758285.28125
46.73,1708758285.296875
47.55,1708758285.3125
47.75,1708758285.328125
47.48,1708758285.34375
46.95,1708758285.359375
46.32,1708758285.375
45.63,1708758285.390625
44.87,1708758285.40625
44.01,1708758285.421875
43.12,1708758285.4375
42.38,1708758285.453125
41.96,1708758285.46875
41.98,1708758285.484375
42.31,1708758285.5
42.65,1708758285.515625
42.55,1708758285.53125
41.59,1708758285.546875
39.51,1708758285.5625
36.26,1708758285.578125
32.01,1708758285.59375
27.12,1708758285.609375
21.98,1708758285.625
16.98,1708758285.640625
12.34,1708758285.65625
8.11,1708758285.671875
4.13,1708758285.6875
0.11,1708758285.703125
-4.25,1708758285.71875
-9.1,1708758285.734375
-14.38,1708758285.75
-19.78,1708758285.765625
-24.95,1708758285.78125
-29.59,1708758285.796875
-33.64,1708758285.8125
-37.28,1708758285.828125
-40.84,1708758285.84375
-44.75,1708758285.859375
-49.39,1708758285.875
-55.02,1708758285.890625
-61.68,1708758285.90625
-69.03,1708758285.921875
-76.16,1708758285.9375
-81.59,1708758285.953125
-83.56,1708758285.96875
-80.53,1708758285.984375
-71.77,1708758286.0
-57.74,1708758286.015625
-40.09,1708758286.03125
-21.11,1708758286.046875
-3.11,1708758286.0625
12.28,1708758286.078125
24.35,1708758286.09375
33.24,1708758286.109375
39.6,1708758286.125
44.13,1708758286.140625
47.4,1708758286.15625
49.7,1708758286.171875
51.19,1708758286.1875
51.92,1708758286.203125
52.03,1708758286.21875
51.62,1708758286.234375
50.8,1708758286.25
49.64,1708758286.265625
48.19,1708758286.28125
46.55,1708758286.296875
44.94,1708758286.3125
43.65,1708758286.328125
42.96,1708758286.34375
42.94,1708758286.359375
43.42,1708758286.375
43.95,1708758286.390625
44.0,1708758286.40625
43.1,1708758286.421875
41.06,1708758286.4375
37.96,1708758286.453125
34.11,1708758286.46875
29.88,1708758286.484375
25.57,1708758286.5
21.34,1708758286.515625
17.14,1708758286.53125
12.87,1708758286.546875
8.42,1708758286.5625
3.75,1708758286.578125
-1.01,1708758286.59375
-5.67,1708758286.609375
-10.05,1708758286.625
-14.13,1708758286.640625
-18.09,1708758286.65625
-22.26,1708758286.671875
-26.98,1708758286.6875
-32.36,1708758286.703125
-38.25,1708758286.71875
-44.24,1708758286.734375
-49.84,1708758286.75
-54.69,1708758286.765625
-58.72,1708758286.78125
-62.19,1708758286.796875
-65.64,1708758286.8125
-69.71,1708758286.828125
-74.96,1708758286.84375
-81.66,1708758286.859375
-89.56,1708758286.875
-97.71,1708758286.890625
-104.58,1708758286.90625
-108.26,1708758286.921875
-106.99,1708758286.9375
-99.78,1708758286.953125
-86.74,1708758286.96875
-69.13,1708758286.984375
-49.05,1708758287.0
-28.82,1708758287.015625
-10.35,1708758287.03125
5.18,1708758287.046875
17.43,1708758287.0625
26.68,1708758287.078125
33.58,1708758287.09375
38.81,1708758287.109375
42.91,1708758287.125
46.23,1708758287.140625
48.93,1708758287.15625
51.0,1708758287.171875
52.4,1708758287.1875
53.11,1708758287.203125
53.14,1708758287.21875
52.59,1708758287.234375
51.63,1708758287.25
50.52,1708758287.265625
49.5,1708758287.28125
48.81,1708758287.296875
48.59,1708758287.3125
48.86,1708758287.328125
49.49,1708758287.34375
50.22,1708758287.359375
50.67,1708758287.375
50.47,1708758287.390625
49.33,1708758287.40625
47.1,1708758287.421875
43.86,1708758287.4375
39.89,1708758287.453125
35.58,1708758287.46875
31.36,1708758287.484375
27.52,1708758287.5
24.08,1708758287.515625
20.81,1708758287.53125
17.36,1708758287.546875
13.39,1708758287.5625
8.83,1708758287.578125
3.89,1708758287.59375
-1.03,1708758287.609375
-5.55,1708758287.625
-9.46,1708758287.640625
-12.87,1708758287.65625
-16.14,1708758287.671875
-19.74,1708758287.6875
-24.0,1708758287.703125
-29.0,1708758287.71875
-34.53,1708758287.734375
-40.18,1708758287.75
-45.5,1708758287.765625
-50.2,1708758287.78125
-54.27,1708758287.796875
-58.0,1708758287.8125
-61.93,1708758287.828125
-66.71,1708758287.84375
-72.78,1708758287.859375
-80.2,1708758287.875
-88.38,1708758287.890625
-96.08,1708758287.90625
-101.52,1708758287.921875
-102.86,1708758287.9375
-98.7,1708758287.953125
-88.57,1708758287.96875
-73.16,1708758287.984375
-54.18,1708758288.0
-33.91,1708758288.015625
-14.54,1708758288.03125
2.29,1708758288.046875
15.74,1708758288.0625
25.74,1708758288.078125
32.73,1708758288.09375
37.38,1708758288.109375
40.36,1708758288.125
42.22,1708758288.140625
43.35,1708758288.15625
44.0,1708758288.171875
44.29,1708758288.1875
44.33,1708758288.203125
44.2,1708758288.21875
43.98,1708758288.234375
43.8,1708758288.25
43.75,1708758288.265625
43.93,1708758288.28125
44.39,1708758288.296875
45.18,1708758288.3125
46.28,1708758288.328125
47.59,1708758288.34375
48.89,1708758288.359375
49.89,1708758288.375
50.22,1708758288.390625
49.61,1708758288.40625
47.9,1708758288.421875
45.11,1708758288.4375
41.39,1708758288.453125
36.98,1708758288.46875
32.12,1708758288.484375
27.05,1708758288.5
22.02,1708758288.515625
17.21,1708758288.53125
12.71,1708758288.546875
8.49,1708758288.5625
4.38,1708758288.578125
0.15,1708758288.59375
-4.39,1708758288.609375
-9.33,1708758288.625
-14.63,1708758288.640625
-20.11,1708758288.65625
-25.56,1708758288.671875
-30.74,1708758288.6875
-35.49,1708758288.703125
-39.76,1708758288.71875
-43.7,1708758288.734375
-47.69,1708758288.75
-52.3,1708758288.765625
-58.12,1708758288.78125
-65.46,1708758288.796875
-74.02,1708758288.8125
-82.71,1708758288.828125
-89.75,1708758288.84375
-93.08,1708758288.859375
-90.95,1708758288.875
-82.59,1708758288.890625
-68.4,1708758288.90625
-50.0,1708758288.921875
-29.65,1708758288.9375
-9.71,1708758288.953125
7.99,1708758288.96875
22.48,1708758288.984375
33.63,1708758289.0
41.94,1708758289.015625
48.12,1708758289.03125
52.84,1708758289.046875
56.5,1708758289.0625
59.26,1708758289.078125
61.16,1708758289.09375
62.25,1708758289.109375
62.64,1708758289.125
62.51,1708758289.140625
62.04,1708758289.15625
61.31,1708758289.171875
60.35,1708758289.1875
59.2,1708758289.203125
57.98,1708758289.21875
56.88,1708758289.234375
56.17,1708758289.25
55.95,1708758289.265625
56.06,1708758289.28125
56.06,1708758289.296875
55.36,1708758289.3125
53.43,1708758289.328125
50.07,1708758289.34375
45.45,1708758289.359375
40.08,1708758289.375
34.53,1708758289.390625
29.22,1708758289.40625
24.3,1708758289.421875
19.61,1708758289.4375
14.88,1708758289.453125
9.88,1708758289.46875
4.58,1708758289.484375
-0.84,1708758289.5
-6.09,1708758289.515625
-10.89,1708758289.53125
-15.14,1708758289.546875
-18.97,1708758289.5625
-22.66,1708758289.578125
-26.61,1708758289.59375
-31.1,1708758289.609375
-36.23,1708758289.625
-41.87,1708758289.640625
-47.67,1708758289.65625
-53.15,1708758289.671875
-57.93,1708758289.6875
-61.83,1708758289.703125
-65.03,1708758289.71875
-68.06,1708758289.734375
-71.65,1708758289.75
-76.54,1708758289.765625
-83.13,1708758289.78125
-91.19,1708758289.796875
-99.72,1708758289.8125
-107.11,1708758289.828125
-111.34,1708758289.84375
-110.64,1708758289.859375
-103.91,1708758289.875
-91.17,1708758289.890625
-73.55,1708758289.90625
