PPG GREEN,time
2246395.0,1708758212.876
2245757.0,1708758212.916
2245987.0,1708758212.956
2245402.0,1708758212.997
2244412.0,1708758213.036
2243812.0,1708758213.076
2243703.0,1708758213.118
2243968.0,1708758213.156
2244886.0,1708758213.196
2245687.0,1708758213.237
2247014.0,1708758213.276
2247943.0,1708758213.317
2249076.0,1708758213.357
2249719.0,1708758213.397
2250008.0,1708758213.437
2250228.0,1708758213.478
2251577.0,1708758213.518
2250143.0,1708758213.557
2245553.0,1708758213.598
2240080.0,1708758213.637
2236199.0,1708758213.677
2233811.0,1708758213.719
2232190.0,1708758213.757
2231836.0,1708758213.797
2232243.0,1708758213.838
2232478.0,1708758213.877
2232597.0,1708758213.918
2232530.0,1708758213.959
2232729.0,1708758213.998
2233985.0,1708758214.038
2236193.0,1708758214.079
2238356.0,1708758214.119
2242237.0,1708758214.158
2246267.0,1708758214.199
2250566.0,1708758214.238
2253498.0,1708758214.278
2257436.0,1708758214.32
2260767.0,1708758214.358
2263162.0,1708758214.398
2261363.0,1708758214.44
2257595.0,1708758214.479
2253941.0,1708758214.52
2252180.0,1708758214.56
2251241.0,1708758214.599
2251136.0,1708758214.639
2252118.0,1708758214.68
2252862.0,1708758214.72
2252750.0,1708758214.759
2252661.0,1708758214.8
2252568.0,1708758214.839
2253241.0,1708758214.879
2253259.0,1708758214.921
2254262.0,1708758214.96
2255826.0,1708758215.0
2256763.0,1708758215.041
2257912.0,1708758215.08
2258968.0,1708758215.121
2259930.0,1708758215.161
2260776.0,1708758215.2
2262499.0,1708758215.24
2263982.0,1708758215.281
2265824.0,1708758215.321
2268037.0,1708758215.36
2266616.0,1708758215.402
2263035.0,1708758215.441
2258594.0,1708758215.481
2256137.0,1708758215.523
2254355.0,1708758215.561
2253280.0,1708758215.601
2253253.0,1708758215.642
2253182.0,1708758215.681
2253101.0,1708758215.722
2252675.0,1708758215.762
2252611.0,1708758215.801
2252775.0,1708758215.842
2253681.0,1708758215.883
2254861.0,1708758215.923
2256742.0,1708758215.962
2259030.0,1708758216.003
2261227.0,1708758216.042
2263423.0,1708758216.082
2265546.0,1708758216.124
2267738.0,1708758216.162
2270068.0,1708758216.202
2272371.0,1708758216.243
2275030.0,1708758216.282
2274317.0,1708758216.324
2270703.0,1708758216.364
2267916.0,1708758216.403
2267286.0,1708758216.443
2267724.0,1708758216.484
2268378.0,1708758216.524
2269630.0,1708758216.563
2272612.0,1708758216.604
2274075.0,1708758216.643
2273199.0,1708758216.683
2272469.0,1708758216.726
2273050.0,1708758216.763
2276344.0,1708758216.804
2280447.0,1708758216.845
2283246.0,1708758216.884
2286213.0,1708758216.925
2290289.0,1708758216.965
2294524.0,1708758217.004
2298455.0,1708758217.044
2302050.0,1708758217.085
2305920.0,1708758217.125
2309440.0,1708758217.164
2313089.0,1708758217.206
2317528.0,1708758217.245
2321126.0,1708758217.285
2321276.0,1708758217.327
2318431.0,1708758217.365
2315788.0,1708758217.405
2314833.0,1708758217.446
2316195.0,1708758217.485
2318401.0,1708758217.526
2320398.0,1708758217.566
2322322.0,1708758217.605
2323620.0,1708758217.646
2324552.0,1708758217.687
2325874.0,1708758217.726
2327106.0,1708758217.766
2328040.0,1708758217.807
2329068.0,1708758217.846
2330090.0,1708758217.886
2331502.0,1708758217.928
2333021.0,1708758217.966
2334242.0,1708758218.006
2335956.0,1708758218.048
2337418.0,1708758218.087
2338488.0,1708758218.127
2339499.0,1708758218.168
2341040.0,1708758218.207
2342355.0,1708758218.247
2343139.0,1708758218.288
2340046.0,1708758218.328
2335629.0,1708758218.367
2331818.0,1708758218.408
2330261.0,1708758218.447
2328518.0,1708758218.488
2328363.0,1708758218.529
2329133.0,1708758218.568
2329159.0,1708758218.608
2328867.0,1708758218.649
2329176.0,1708758218.688
2330205.0,1708758218.729
2335159.0,1708758218.769
2341497.0,1708758218.808
2346715.0,1708758218.848
2352270.0,1708758218.881
2357598.0,1708758218.921
2361743.0,1708758218.958
2365398.0,1708758218.999
2368083.0,1708758219.038
2371577.0,1708758219.079
2374260.0,1708758219.121
2375368.0,1708758219.159
2373602.0,1708758219.199
2371362.0,1708758219.241
2372105.0,1708758219.28
2372318.0,1708758219.321
2369555.0,1708758219.359
2367399.0,1708758219.398
2366254.0,1708758219.439
2364218.0,1708758219.48
2371637.0,1708758219.52
2385740.0,1708758219.559
2402082.0,1708758219.601
2409497.0,1708758219.64
2410707.0,1708758219.68
2407570.0,1708758219.722
2400297.0,1708758219.758
2392833.0,1708758219.799
2388039.0,1708758219.84
2386736.0,1708758219.879
2388273.0,1708758219.92
2389962.0,1708758219.961
2392875.0,1708758220.0
2395081.0,1708758220.04
2395548.0,1708758220.081
2399528.0,1708758220.121
2407568.0,1708758220.158
2417042.0,1708758220.2
2425032.0,1708758220.239
2431582.0,1708758220.279
2435891.0,1708758220.321
2437219.0,1708758220.36
2437445.0,1708758220.4
2438153.0,1708758220.441
2438577.0,1708758220.48
2441064.0,1708758220.519
2443302.0,1708758220.56
2445065.0,1708758220.599
2446973.0,1708758220.639
2448708.0,1708758220.68
2450614.0,1708758220.72
2452545.0,1708758220.759
2453915.0,1708758220.8
2454846.0,1708758220.84
2455861.0,1708758220.88
2456088.0,1708758220.922
2452281.0,1708758220.96
2447189.0,1708758221.001
2442493.0,1708758221.04
2439483.0,1708758221.079
2437586.0,1708758221.121
2435373.0,1708758221.161
2433726.0,1708758221.2
2431908.0,1708758221.24
2429713.0,1708758221.281
2427386.0,1708758221.321
2424740.0,1708758221.361
2423508.0,1708758221.4
2422239.0,1708758221.439
2421999.0,1708758221.479
2421585.0,1708758221.521
2421281.0,1708758221.56
2421533.0,1708758221.6
2421576.0,1708758221.641
2421570.0,1708758221.681
2421063.0,1708758221.722
2417184.0,1708758221.762
2412208.0,1708758221.799
2407324.0,1708758221.839
2403942.0,1708758221.881
2401958.0,1708758221.921
2401101.0,1708758221.96
2400811.0,1708758222.001
2400503.0,1708758222.04
2400281.0,1708758222.081
2400296.0,1708758222.123
2400482.0,1708758222.161
2400299.0,1708758222.199
2400940.0,1708758222.241
2402245.0,1708758222.28
2403678.0,1708758222.321
2405147.0,1708758222.361
2406988.0,1708758222.4
2408950.0,1708758222.44
2411085.0,1708758222.481
2409657.0,1708758222.521
2404719.0,1708758222.56
2399775.0,1708758222.602
2395973.0,1708758222.641
2393111.0,1708758222.681
2391346.0,1708758222.722
2390622.0,1708758222.761
2390345.0,1708758222.801
2390121.0,1708758222.842
2389311.0,1708758222.881
2389222.0,1708758222.922
2389756.0,1708758222.962
2390709.0,1708758223.001
2391751.0,1708758223.041
2393231.0,1708758223.081
2394918.0,1708758223.12
2396930.0,1708758223.16
2398790.0,1708758223.201
2400859.0,1708758223.24
2403375.0,1708758223.281
2405599.0,1708758223.322
2408495.0,1708758223.361
2410620.0,1708758223.401
2413230.0,1708758223.443
2415136.0,1708758223.48
2412106.0,1708758223.521
2407552.0,1708758223.561
2404083.0,1708758223.601
2401472.0,1708758223.641
2399548.0,1708758223.682
2398254.0,1708758223.722
2398277.0,1708758223.761
2398279.0,1708758223.803
2398446.0,1708758223.842
2397987.0,1708758223.88
2397893.0,1708758223.922
2398005.0,1708758223.96
2398829.0,1708758224.001
2399165.0,1708758224.042
2400323.0,1708758224.087
2401382.0,1708758224.128
2402653.0,1708758224.168
2403799.0,1708758224.207
2404894.0,1708758224.247
2406391.0,1708758224.288
2407925.0,1708758224.328
2409206.0,1708758224.367
2410858.0,1708758224.408
2413243.0,1708758224.447
2415532.0,1708758224.488
2412775.0,1708758224.529
2407546.0,1708758224.568
2402544.0,1708758224.608
2399836.0,1708758224.649
2397097.0,1708758224.688
2395489.0,1708758224.729
2395302.0,1708758224.769
2394838.0,1708758224.808
2394277.0,1708758224.848
2394188.0,1708758224.889
2395060.0,1708758224.929
2395227.0,1708758224.968
2396073.0,1708758225.009
2397281.0,1708758225.048
2398739.0,1708758225.088
2400657.0,1708758225.13
2402813.0,1708758225.168
2404796.0,1708758225.209
2407520.0,1708758225.25
2410027.0,1708758225.289
2412456.0,1708758225.329
2415145.0,1708758225.37
2417441.0,1708758225.409
2414604.0,1708758225.449
2410237.0,1708758225.49
2406084.0,1708758225.53
2403475.0,1708758225.569
2401986.0,1708758225.61
2401446.0,1708758225.649
2401375.0,1708758225.689
2401677.0,1708758225.731
2401698.0,1708758225.769
2401235.0,1708758225.81
2401318.0,1708758225.851
2401985.0,1708758225.89
2402834.0,1708758225.93
2403923.0,1708758225.971
2405641.0,1708758226.01
2407119.0,1708758226.05
2408908.0,1708758226.091
2410710.0,1708758226.131
2412297.0,1708758226.17
2413931.0,1708758226.211
2415460.0,1708758226.25
2417767.0,1708758226.29
2420081.0,1708758226.332
2419796.0,1708758226.37
2416131.0,1708758226.41
2411334.0,1708758226.452
2408295.0,1708758226.491
2405602.0,1708758226.531
2404063.0,1708758226.572
2403175.0,1708758226.611
2403066.0,1708758226.651
2403168.0,1708758226.692
2402914.0,1708758226.732
2402746.0,1708758226.771
2403074.0,1708758226.812
2403569.0,1708758226.851
2404224.0,1708758226.891
2405787.0,1708758226.933
2407252.0,1708758226.971
2408778.0,1708758227.011
2410226.0,1708758227.052
2411242.0,1708758227.091
2412876.0,1708758227.132
2414261.0,1708758227.172
2416075.0,1708758227.212
2417583.0,1708758227.252
2419768.0,1708758227.293
2421006.0,1708758227.332
2417426.0,1708758227.372
2412489.0,1708758227.413
2408053.0,1708758227.452
2405274.0,1708758227.489
2402722.0,1708758227.531
2400986.0,1708758227.57
2400688.0,1708758227.61
2399899.0,1708758227.651
2399420.0,1708758227.69
2400238.0,1708758227.731
2402624.0,1708758227.771
2405650.0,1708758227.81
2406778.0,1708758227.85
2407329.0,1708758227.891
2407018.0,1708758227.931
2407323.0,1708758227.971
2407843.0,1708758228.012
2408332.0,1708758228.051
2409071.0,1708758228.091
2410037.0,1708758228.131
2411579.0,1708758228.17
2412203.0,1708758228.21
2409666.0,1708758228.251
2404190.0,1708758228.29
2398410.0,1708758228.331
2394436.0,1708758228.372
2391662.0,1708758228.411
2390200.0,1708758228.451
2390695.0,1708758228.492
2391087.0,1708758228.532
2391301.0,1708758228.57
2391418.0,1708758228.611
2391342.0,1708758228.65
2392524.0,1708758228.69
2392844.0,1708758228.732
2393440.0,1708758228.771
2394978.0,1708758228.811
2396865.0,1708758228.852
2399251.0,1708758228.891
2401150.0,1708758228.932
2402965.0,1708758228.972
2404851.0,1708758229.011
2407015.0,1708758229.051
2409437.0,1708758229.092
2410164.0,1708758229.132
2406722.0,1708758229.172
2402005.0,1708758229.211
2398047.0,1708758229.25
2395660.0,1708758229.29
2394348.0,1708758229.332
2393410.0,1708758229.371
2393778.0,1708758229.411
2393919.0,1708758229.452
2394215.0,1708758229.492
2393756.0,1708758229.533
2393968.0,1708758229.572
2395256.0,1708758229.611
2396206.0,1708758229.652
2397481.0,1708758229.693
2399247.0,1708758229.733
2401210.0,1708758229.772
2403114.0,1708758229.811
2404707.0,1708758229.85
2407149.0,1708758229.891
2409158.0,1708758229.933
2411008.0,1708758229.971
2412775.0,1708758230.011
2415460.0,1708758230.053
2414259.0,1708758230.092
2409520.0,1708758230.133
2404677.0,1708758230.173
2401809.0,1708758230.212
2399565.0,1708758230.25
2397982.0,1708758230.292
2397753.0,1708758230.331
2397773.0,1708758230.371
2396655.0,1708758230.452
2396017.0,1708758230.492
2397243.0,1708758230.412
2395919.0,1708758230.534
2396282.0,1708758230.572
2396422.0,1708758230.612
2396893.0,1708758230.652
2397645.0,1708758230.691
2398672.0,1708758230.732
2400788.0,1708758230.81
2399816.0,1708758230.772
2402098.0,1708758230.851
2404247.0,1708758230.892
2408198.0,1708758230.931
2414835.0,1708758230.971
2422358.0,1708758231.012
2425033.0,1708758231.051
2426205.0,1708758231.091
2429072.0,1708758231.133
2434285.0,1708758231.172
2439120.0,1708758231.212
2443317.0,1708758231.253
2446867.0,1708758231.292
2450105.0,1708758231.333
2452569.0,1708758231.372
2454271.0,1708758231.411
2456197.0,1708758231.451
2458146.0,1708758231.492
2460603.0,1708758231.532
2463981.0,1708758231.572
2467438.0,1708758231.613
2470582.0,1708758231.652
2474092.0,1708758231.692
2476835.0,1708758231.734
2479209.0,1708758231.773
2480955.0,1708758231.811
2481197.0,1708758231.852
2480885.0,1708758231.891
2479746.0,1708758231.932
2474771.0,1708758231.972
2468476.0,1708758232.011
2463075.0,1708758232.051
2458698.0,1708758232.092
2455180.0,1708758232.132
2452168.0,1708758232.172
2449923.0,1708758232.213
2448064.0,1708758232.252
2446168.0,1708758232.292
2444379.0,1708758232.334
2442821.0,1708758232.373
2441898.0,1708758232.411
2441394.0,1708758232.452
2441594.0,1708758232.492
2442015.0,1708758232.533
2442648.0,1708758232.572
2443367.0,1708758232.611
2443758.0,1708758232.651
2445385.0,1708758232.693
2446050.0,1708758232.732
2447383.0,1708758232.772
2448837.0,1708758232.813
2450359.0,1708758232.852
2451819.0,1708758232.893
2453079.0,1708758232.935
2449862.0,1708758232.973
2444677.0,1708758233.013
2440168.0,1708758233.052
2436836.0,1708758233.092
2434252.0,1708758233.133
2432342.0,1708758233.173
2431462.0,1708758233.212
2430620.0,1708758233.252
2429612.0,1708758233.294
2428181.0,1708758233.334
2427810.0,1708758233.371
2427447.0,1708758233.413
2426968.0,1708758233.452
2426960.0,1708758233.492
2427948.0,1708758233.533
2428277.0,1708758233.572
2429010.0,1708758233.612
2429512.0,1708758233.653
2430855.0,1708758233.692
2431610.0,1708758233.733
2432396.0,1708758233.773
2433222.0,1708758233.812
2434686.0,1708758233.852
2436082.0,1708758233.893
2437052.0,1708758233.933
2434381.0,1708758233.973
2429524.0,1708758234.014
2424595.0,1708758234.053
2421350.0,1708758234.094
2419393.0,1708758234.135
2418022.0,1708758234.172
2416923.0,1708758234.212
2416773.0,1708758234.253
2415882.0,1708758234.292
2415053.0,1708758234.333
2414980.0,1708758234.374
2414820.0,1708758234.413
2415263.0,1708758234.454
2415943.0,1708758234.495
2417166.0,1708758234.535
2418330.0,1708758234.572
2420333.0,1708758234.613
2423685.0,1708758234.693
2422067.0,1708758234.652
2424475.0,1708758234.735
2426291.0,1708758234.773
2430844.0,1708758234.855
2432877.0,1708758234.935
2428334.0,1708758234.813
2433189.0,1708758234.894
2429496.0,1708758234.974
2425438.0,1708758235.013
2423150.0,1708758235.054
2420841.0,1708758235.095
2419658.0,1708758235.135
2419129.0,1708758235.174
2419294.0,1708758235.213
2419697.0,1708758235.253
2424794.0,1708758235.293
2432184.0,1708758235.335
2438534.0,1708758235.373
2443303.0,1708758235.414
2446072.0,1708758235.455
2448764.0,1708758235.494
2451458.0,1708758235.535
2453588.0,1708758235.574
2456591.0,1708758235.613
2458624.0,1708758235.653
2459482.0,1708758235.694
2459849.0,1708758235.734
2458500.0,1708758235.774
2458416.0,1708758235.815
2458285.0,1708758235.854
2458384.0,1708758235.894
2455700.0,1708758235.937
2450496.0,1708758235.976
2445162.0,1708758236.015
2440775.0,1708758236.054
2439297.0,1708758236.096
2437926.0,1708758236.137
2437414.0,1708758236.177
2438010.0,1708758236.216
2438842.0,1708758236.256
2439374.0,1708758236.297
2440605.0,1708758236.337
2441532.0,1708758236.377
2441688.0,1708758236.418
2439310.0,1708758236.457
2435762.0,1708758236.497
2432597.0,1708758236.538
2429474.0,1708758236.577
2426975.0,1708758236.617
2424149.0,1708758236.658
2422785.0,1708758236.697
2421415.0,1708758236.738
2419795.0,1708758236.778
2419525.0,1708758236.817
2418894.0,1708758236.857
2417361.0,1708758236.898
2413128.0,1708758236.938
2408991.0,1708758236.977
2404566.0,1708758237.018
2399403.0,1708758237.057
2393443.0,1708758237.097
2388589.0,1708758237.139
2385273.0,1708758237.178
2382019.0,1708758237.218
2378189.0,1708758237.259
2375737.0,1708758237.298
2373353.0,1708758237.338
2370727.0,1708758237.379
2368830.0,1708758237.418
2367765.0,1708758237.458
2366788.0,1708758237.499
2366666.0,1708758237.539
2366413.0,1708758237.578
2367587.0,1708758237.619
2373353.0,1708758237.658
2381653.0,1708758237.698
2390889.0,1708758237.74
2396827.0,1708758237.779
2398304.0,1708758237.819
2398883.0,1708758237.86
2400341.0,1708758237.899
2404288.0,1708758237.98
2402134.0,1708758237.939
2406607.0,1708758238.019
2409817.0,1708758238.059
2412091.0,1708758238.1
2414059.0,1708758238.14
2414919.0,1708758238.179
2416114.0,1708758238.22
2418072.0,1708758238.259
2420091.0,1708758238.3
2422236.0,1708758238.341
2425038.0,1708758238.38
2427269.0,1708758238.42
2429992.0,1708758238.461
2432516.0,1708758238.5
2444164.0,1708758238.66
2434612.0,1708758238.541
2437631.0,1708758238.581
2440405.0,1708758238.62
2444260.0,1708758238.701
2440331.0,1708758238.741
2435876.0,1708758238.781
2432425.0,1708758238.822
2429904.0,1708758238.861
2428147.0,1708758238.901
2427235.0,1708758239.021
2426487.0,1708758239.062
2425893.0,1708758239.101
2427407.0,1708758238.981
2427119.0,1708758238.943
2425219.0,1708758239.182
2425402.0,1708758239.142
2426079.0,1708758239.259
2425316.0,1708758239.221
2426798.0,1708758239.3
2427530.0,1708758239.34
2428063.0,1708758239.38
2428528.0,1708758239.421
2432100.0,1708758239.501
2433172.0,1708758239.543
2430197.0,1708758239.46
2434253.0,1708758239.579
2435263.0,1708758239.619
2432572.0,1708758239.661
2426686.0,1708758239.7
2417142.0,1708758239.782
2413906.0,1708758239.821
2421003.0,1708758239.741
2411150.0,1708758239.9
2408846.0,1708758239.98
2412102.0,1708758239.861
2407207.0,1708758240.021
2406314.0,1708758240.06
2405508.0,1708758240.101
2405382.0,1708758240.143
2406011.0,1708758240.181
2409887.0,1708758239.94
2406956.0,1708758240.221
2407702.0,1708758240.261
2408741.0,1708758240.3
2409923.0,1708758240.341
2410562.0,1708758240.381
2411124.0,1708758240.421
2412437.0,1708758240.461
2413513.0,1708758240.502
2410138.0,1708758240.542
2404693.0,1708758240.58
2400405.0,1708758240.621
2397009.0,1708758240.66
2394616.0,1708758240.7
2393487.0,1708758240.742
2393329.0,1708758240.781
2392921.0,1708758240.821
2392284.0,1708758240.862
2391884.0,1708758240.902
2392396.0,1708758240.94
2393396.0,1708758240.981
2394165.0,1708758241.02
2395319.0,1708758241.06
2397039.0,1708758241.101
2398849.0,1708758241.141
2400953.0,1708758241.18
2402876.0,1708758241.221
2405403.0,1708758241.261
2407758.0,1708758241.301
2409714.0,1708758241.343
2411464.0,1708758241.382
2413813.0,1708758241.422
2413361.0,1708758241.461
2408632.0,1708758241.5
2403017.0,1708758241.541
2398704.0,1708758241.582
2395831.0,1708758241.621
2393610.0,1708758241.661
2392468.0,1708758241.703
2392629.0,1708758241.742
2392674.0,1708758241.78
2393132.0,1708758241.821
2392668.0,1708758241.861
2393343.0,1708758241.901
2395032.0,1708758241.943
2396607.0,1708758241.981
2398874.0,1708758242.022
2401222.0,1708758242.063
2403852.0,1708758242.102
2405870.0,1708758242.141
2407690.0,1708758242.181
2408334.0,1708758242.221
2407339.0,1708758242.261
2406841.0,1708758242.302
2405496.0,1708758242.342
2403945.0,1708758242.382
2403905.0,1708758242.423
2404891.0,1708758242.46
2410582.0,1708758242.501
2416516.0,1708758242.543
2414142.0,1708758242.581
2404372.0,1708758242.621
2392486.0,1708758242.663
2387116.0,1708758242.702
2387474.0,1708758242.743
2392759.0,1708758242.781
2401778.0,1708758242.821
2416062.0,1708758242.861
2427316.0,1708758242.902
2437823.0,1708758242.942
2448397.0,1708758242.982
2456311.0,1708758243.023
2463803.0,1708758243.062
2470370.0,1708758243.103
2475896.0,1708758243.142
2481932.0,1708758243.181
2489974.0,1708758243.221
2496236.0,1708758243.262
2495802.0,1708758243.302
2493019.0,1708758243.343
2492111.0,1708758243.383
2497501.0,1708758243.422
2512456.0,1708758243.461
2526945.0,1708758243.502
2538436.0,1708758243.542
2547536.0,1708758243.581
2552814.0,1708758243.622
2559903.0,1708758243.661
2569849.0,1708758243.702
2582140.0,1708758243.744
2594497.0,1708758243.782
2600396.0,1708758243.822
2605885.0,1708758243.864
2614850.0,1708758243.903
2628426.0,1708758243.942
2644134.0,1708758243.982
2654090.0,1708758244.021
2660404.0,1708758244.062
2665217.0,1708758244.103
2669193.0,1708758244.143
2671715.0,1708758244.183
2674312.0,1708758244.224
2678353.0,1708758244.263
2683454.0,1708758244.301
2687280.0,1708758244.343
2689416.0,1708758244.382
2691721.0,1708758244.422
2696616.0,1708758244.463
2699183.0,1708758244.502
2701014.0,1708758244.543
2703919.0,1708758244.584
2709537.0,1708758244.621
2716192.0,1708758244.661
2721727.0,1708758244.703
2726521.0,1708758244.743
2730399.0,1708758244.782
2736722.0,1708758244.824
2744313.0,1708758244.863
2749830.0,1708758244.903
2752391.0,1708758244.943
2754551.0,1708758244.982
2756873.0,1708758245.022
2759353.0,1708758245.063
2762149.0,1708758245.102
2764688.0,1708758245.143
2767555.0,1708758245.184
2770420.0,1708758245.224
2772526.0,1708758245.261
2774689.0,1708758245.303
2777055.0,1708758245.343
2781113.0,1708758245.382
2785140.0,1708758245.424
2788219.0,1708758245.463
2791194.0,1708758245.503
2793531.0,1708758245.545
2796042.0,1708758245.582
2798707.0,1708758245.622
2802827.0,1708758245.663
2805484.0,1708758245.702
2808412.0,1708758245.743
2812090.0,1708758245.784
2815500.0,1708758245.823
2818732.0,1708758245.863
2822012.0,1708758245.903
2824945.0,1708758245.943
2828611.0,1708758245.982
2831191.0,1708758246.023
2834009.0,1708758246.063
2836259.0,1708758246.103
2838872.0,1708758246.145
2841084.0,1708758246.181
2843265.0,1708758246.221
2845832.0,1708758246.262
2847983.0,1708758246.302
2850772.0,1708758246.343
2853242.0,1708758246.383
2855362.0,1708758246.422
2859787.0,1708758246.504
2857566.0,1708758246.462
2861576.0,1708758246.544
2863835.0,1708758246.583
2865728.0,1708758246.624
2867870.0,1708758246.664
2870626.0,1708758246.702
2872627.0,1708758246.744
2874757.0,1708758246.782
2877127.0,1708758246.823
2879408.0,1708758246.864
2881870.0,1708758246.903
2883678.0,1708758246.944
2885701.0,1708758246.985
2887881.0,1708758247.024
2890134.0,1708758247.062
2892041.0,1708758247.103
2894118.0,1708758247.143
2896070.0,1708758247.183
2897953.0,1708758247.224
2899638.0,1708758247.263
2901906.0,1708758247.304
2903582.0,1708758247.346
2904959.0,1708758247.382
2907056.0,1708758247.423
2909195.0,1708758247.464
2911230.0,1708758247.503
2912911.0,1708758247.544
2915081.0,1708758247.585
2917573.0,1708758247.624
2919221.0,1708758247.664
2921173.0,1708758247.703
2922998.0,1708758247.743
2925256.0,1708758247.783
2927009.0,1708758247.824
2928689.0,1708758247.863
2930434.0,1708758247.904
2932076.0,1708758247.946
2933637.0,1708758247.984
2935124.0,1708758248.024
2936427.0,1708758248.064
2938165.0,1708758248.095
2939648.0,1708758248.136
2941040.0,1708758248.177
2943512.0,1708758248.216
2946060.0,1708758248.256
2947808.0,1708758248.297
2948690.0,1708758248.337
2950576.0,1708758248.376
2952577.0,1708758248.417
2954006.0,1708758248.456
2954928.0,1708758248.496
2955760.0,1708758248.538
2956159.0,1708758248.576
2956494.0,1708758248.616
2957654.0,1708758248.657
2958666.0,1708758248.696
2960022.0,1708758248.737
2960996.0,1708758248.778
2961962.0,1708758248.817
2963291.0,1708758248.857
2964324.0,1708758248.898
2965713.0,1708758248.937
2966457.0,1708758248.977
2966695.0,1708758249.018
2967885.0,1708758249.057
2969560.0,1708758249.097
2970854.0,1708758249.139
2971638.0,1708758249.177
2972921.0,1708758249.217
2973631.0,1708758249.258
2975624.0,1708758249.297
2976108.0,1708758249.338
2976749.0,1708758249.379
2977910.0,1708758249.418
2978981.0,1708758249.458
2979859.0,1708758249.499
2980466.0,1708758249.538
2981474.0,1708758249.578
2981975.0,1708758249.619
2982698.0,1708758249.658
2983842.0,1708758249.698
2984949.0,1708758249.74
2986140.0,1708758249.778
2986934.0,1708758249.818
2988040.0,1708758249.859
2989013.0,1708758249.898
2989859.0,1708758249.939
2990249.0,1708758249.98
2991366.0,1708758250.019
2991729.0,1708758250.059
2992892.0,1708758250.1
2994692.0,1708758250.139
2995756.0,1708758250.179
2995923.0,1708758250.22
2996172.0,1708758250.259
2996654.0,1708758250.299
2997248.0,1708758250.341
2997942.0,1708758250.379
2998207.0,1708758250.419
2998389.0,1708758250.46
2998499.0,1708758250.499
2998773.0,1708758250.54
2998804.0,1708758250.581
2999594.0,1708758250.62
2999864.0,1708758250.66
2999987.0,1708758250.701
3000855.0,1708758250.74
3001216.0,1708758250.78
3001663.0,1708758250.821
3002092.0,1708758250.86
3002825.0,1708758250.9
3003985.0,1708758250.942
3005334.0,1708758250.98
3006632.0,1708758251.02
3007722.0,1708758251.062
3008636.0,1708758251.101
3009691.0,1708758251.141
3011402.0,1708758251.182
3011842.0,1708758251.221
3012359.0,1708758251.261
3012748.0,1708758251.302
3013099.0,1708758251.342
3014331.0,1708758251.381
3014606.0,1708758251.422
3014694.0,1708758251.461
3014794.0,1708758251.502
3016160.0,1708758251.543
3017513.0,1708758251.582
3018179.0,1708758251.622
3018353.0,1708758251.663
3019731.0,1708758251.702
3020940.0,1708758251.743
3021873.0,1708758251.783
3022347.0,1708758251.822
3023073.0,1708758251.862
3024410.0,1708758251.903
3025273.0,1708758251.943
3025976.0,1708758251.983
3026484.0,1708758252.024
3027816.0,1708758252.063
3028484.0,1708758252.103
3029609.0,1708758252.145
3030401.0,1708758252.183
3031030.0,1708758252.223
3031763.0,1708758252.264
3031895.0,1708758252.303
3032720.0,1708758252.344
3034283.0,1708758252.384
3034292.0,1708758252.423
3035213.0,1708758252.463
3036559.0,1708758252.544
3035759.0,1708758252.505
3037724.0,1708758252.584
3038508.0,1708758252.625
3039215.0,1708758252.664
3040198.0,1708758252.704
3041291.0,1708758252.746
3042148.0,1708758252.784
3042509.0,1708758252.824
3043447.0,1708758252.865
3044399.0,1708758252.904
3045013.0,1708758252.945
3045696.0,1708758252.986
3045982.0,1708758253.025
3047167.0,1708758253.065
3048663.0,1708758253.106
3049175.0,1708758253.146
3049186.0,1708758253.185
3049551.0,1708758253.226
3051023.0,1708758253.265
3051078.0,1708758253.305
3051817.0,1708758253.347
3052036.0,1708758253.386
3053184.0,1708758253.426
3054151.0,1708758253.467
3054659.0,1708758253.506
3054785.0,1708758253.547
3055991.0,1708758253.587
3057001.0,1708758253.626
3058066.0,1708758253.666
3058497.0,1708758253.707
3059013.0,1708758253.747
3060099.0,1708758253.786
3060857.0,1708758253.828
3061649.0,1708758253.867
3061688.0,1708758253.907
3063250.0,1708758253.949
3063942.0,1708758253.987
3064400.0,1708758254.027
3065111.0,1708758254.068
3065775.0,1708758254.107
3066675.0,1708758254.148
3067616.0,1708758254.189
3068277.0,1708758254.228
3068513.0,1708758254.268
3069034.0,1708758254.309
3069974.0,1708758254.348
3070771.0,1708758254.388
3071084.0,1708758254.429
3071498.0,1708758254.468
3072054.0,1708758254.508
3072804.0,1708758254.55
3073604.0,1708758254.588
3074074.0,1708758254.629
3074459.0,1708758254.67
3075427.0,1708758254.709
3076430.0,1708758254.75
3076791.0,1708758254.79
3077132.0,1708758254.829
3078167.0,1708758254.869
3079056.0,1708758254.91
3079506.0,1708758254.95
3079985.0,1708758254.989
3080324.0,1708758255.031
3081522.0,1708758255.07
3081841.0,1708758255.11
3082454.0,1708758255.152
3082601.0,1708758255.19
3083436.0,1708758255.23
3083815.0,1708758255.271
3084071.0,1708758255.31
3084987.0,1708758255.351
3084866.0,1708758255.392
3085211.0,1708758255.431
3086046.0,1708758255.471
3086410.0,1708758255.512
3086671.0,1708758255.552
3087038.0,1708758255.591
3087418.0,1708758255.632
3088574.0,1708758255.671
3088193.0,1708758255.711
3088958.0,1708758255.753
3089118.0,1708758255.791
3089741.0,1708758255.831
3090009.0,1708758255.872
3090254.0,1708758255.911
3090842.0,1708758255.952
3091372.0,1708758255.993
3092172.0,1708758256.032
3093148.0,1708758256.072
3093235.0,1708758256.113
3093844.0,1708758256.153
3094533.0,1708758256.192
3094834.0,1708758256.233
3094973.0,1708758256.272
3095406.0,1708758256.313
3096291.0,1708758256.354
3097101.0,1708758256.393
3096737.0,1708758256.433
3097645.0,1708758256.474
3098714.0,1708758256.513
3099345.0,1708758256.554
3099906.0,1708758256.594
3099962.0,1708758256.633
3100942.0,1708758256.673
3101718.0,1708758256.715
3102130.0,1708758256.754
3102521.0,1708758256.794
3103326.0,1708758256.835
3103822.0,1708758256.874
3104164.0,1708758256.914
3104973.0,1708758256.956
3104980.0,1708758256.994
3105542.0,1708758257.034
3106365.0,1708758257.071
3106702.0,1708758257.103
3106850.0,1708758257.142
3106863.0,1708758257.18
3107269.0,1708758257.219
3107950.0,1708758257.259
3108638.0,1708758257.301
3108792.0,1708758257.341
3109188.0,1708758257.38
3110080.0,1708758257.422
3110563.0,1708758257.461
3110734.0,1708758257.501
3111377.0,1708758257.541
3111874.0,1708758257.579
3112542.0,1708758257.62
3112963.0,1708758257.661
3113653.0,1708758257.7
3113755.0,1708758257.741
3114082.0,1708758257.782
3114751.0,1708758257.821
3115109.0,1708758257.861
3115130.0,1708758257.9
3115640.0,1708758257.94
3115750.0,1708758257.98
3115969.0,1708758258.021
3116772.0,1708758258.06
3117094.0,1708758258.1
3117373.0,1708758258.142
3117638.0,1708758258.181
3118255.0,1708758258.221
3118337.0,1708758258.26
3118641.0,1708758258.3
3118991.0,1708758258.341
3119404.0,1708758258.381
3120083.0,1708758258.42
3120512.0,1708758258.461
3120634.0,1708758258.502
3120551.0,1708758258.542
3121361.0,1708758258.581
3121034.0,1708758258.621
3121793.0,1708758258.66
3121876.0,1708758258.7
3122082.0,1708758258.742
3122275.0,1708758258.78
3122387.0,1708758258.821
3122782.0,1708758258.862
3123264.0,1708758258.901
3123243.0,1708758258.942
3123813.0,1708758258.982
3124064.0,1708758259.02
3124172.0,1708758259.06
3124776.0,1708758259.101
3125051.0,1708758259.141
3125643.0,1708758259.181
3126020.0,1708758259.222
3126297.0,1708758259.261
3126936.0,1708758259.301
3127189.0,1708758259.343
3127710.0,1708758259.38
3127893.0,1708758259.42
3128233.0,1708758259.461
3128304.0,1708758259.501
3128999.0,1708758259.541
3129176.0,1708758259.582
3129218.0,1708758259.621
3129848.0,1708758259.662
3130437.0,1708758259.703
3130957.0,1708758259.741
3131448.0,1708758259.78
3131299.0,1708758259.821
3131910.0,1708758259.861
3132330.0,1708758259.901
3132503.0,1708758259.943
3132650.0,1708758259.981
3132872.0,1708758260.022
3133431.0,1708758260.063
3133588.0,1708758260.098
3134174.0,1708758260.179
3134434.0,1708758260.218
3134862.0,1708758260.258
3135007.0,1708758260.299
3135373.0,1708758260.339
3135993.0,1708758260.419
3136249.0,1708758260.459
3136660.0,1708758260.499
3136651.0,1708758260.54
3137082.0,1708758260.579
3137591.0,1708758260.619
3137426.0,1708758260.66
3137968.0,1708758260.699
3138166.0,1708758260.74
3138254.0,1708758260.78
3138307.0,1708758260.819
3138814.0,1708758260.86
3139031.0,1708758260.901
3139652.0,1708758260.941
3133763.0,1708758260.139
3135955.0,1708758260.378
3140026.0,1708758260.98
3139842.0,1708758261.019
3139924.0,1708758261.059
3141036.0,1708758261.099
3140597.0,1708758261.141
3140904.0,1708758261.179
3141510.0,1708758261.22
3142343.0,1708758261.261
3142094.0,1708758261.3
3142136.0,1708758261.341
3142705.0,1708758261.38
3142783.0,1708758261.419
3143012.0,1708758261.459
3143716.0,1708758261.5
3143374.0,1708758261.54
3143923.0,1708758261.579
3143851.0,1708758261.62
3143959.0,1708758261.66
3143946.0,1708758261.7
3144793.0,1708758261.742
3144853.0,1708758261.78
3144914.0,1708758261.82
3145445.0,1708758261.862
3145810.0,1708758261.899
3146407.0,1708758261.98
3146138.0,1708758262.02
3146134.0,1708758261.94
3146791.0,1708758262.06
3148317.0,1708758262.259
3148632.0,1708758262.299
3147551.0,1708758262.222
3147512.0,1708758262.18
3146974.0,1708758262.101
3147406.0,1708758262.141
3149517.0,1708758262.38
3148911.0,1708758262.341
3151234.0,1708758262.619
3150069.0,1708758262.461
3150105.0,1708758262.501
3150593.0,1708758262.542
3150567.0,1708758262.58
3151790.0,1708758262.66
3151879.0,1708758262.701
3152031.0,1708758262.741
3149807.0,1708758262.42
3151961.0,1708758262.78
3152757.0,1708758262.822
3153093.0,1708758262.861
3153340.0,1708758262.901
3153307.0,1708758262.941
3154382.0,1708758262.979
3154145.0,1708758263.02
3154475.0,1708758263.1
3154429.0,1708758263.061
3154841.0,1708758263.141
3155337.0,1708758263.182
3155221.0,1708758263.221
3155735.0,1708758263.261
3156081.0,1708758263.302
3155910.0,1708758263.34
3156051.0,1708758263.38
3156320.0,1708758263.421
3156217.0,1708758263.46
3156555.0,1708758263.5
3157308.0,1708758263.542
3158495.0,1708758263.581
3158171.0,1708758263.621
3158163.0,1708758263.662
3158803.0,1708758263.74
3158341.0,1708758263.699
3158759.0,1708758263.781
3159026.0,1708758263.82
3159547.0,1708758263.86
3159213.0,1708758263.902
3160134.0,1708758263.981
3159643.0,1708758263.942
3160323.0,1708758264.06
3159687.0,1708758264.022
3160787.0,1708758264.1
3160769.0,1708758264.141
3160850.0,1708758264.18
3160965.0,1708758264.22
3161684.0,1708758264.262
3161385.0,1708758264.301
3161604.0,1708758264.342
3161816.0,1708758264.382
3161439.0,1708758264.422
3162024.0,1708758264.46
3162304.0,1708758264.501
3162748.0,1708758264.541
3162591.0,1708758264.58
3162817.0,1708758264.622
3163139.0,1708758264.661
3163289.0,1708758264.701
3163376.0,1708758264.743
3163871.0,1708758264.782
3163848.0,1708758264.822
3164494.0,1708758264.861
3164307.0,1708758264.9
3164775.0,1708758264.941
3164886.0,1708758264.982
3165458.0,1708758265.021
3165283.0,1708758265.061
3165429.0,1708758265.102
3165538.0,1708758265.182
3165907.0,1708758265.26
3165522.0,1708758265.142
3165673.0,1708758265.221
3166316.0,1708758265.338
3166620.0,1708758265.417
3166201.0,1708758265.301
3166292.0,1708758265.377
3166674.0,1708758265.458
3166673.0,1708758265.497
3167115.0,1708758265.578
3166816.0,1708758265.538
3167658.0,1708758265.617
3167718.0,1708758265.738
3167345.0,1708758265.657
3167538.0,1708758265.698
3168484.0,1708758265.819
3168110.0,1708758265.778
3168705.0,1708758265.858
3169029.0,1708758265.898
3169327.0,1708758265.94
3169482.0,1708758265.978
3169475.0,1708758266.018
3170122.0,1708758266.059
3170380.0,1708758266.098
3170765.0,1708758266.139
3170806.0,1708758266.18
3171163.0,1708758266.219
3170830.0,1708758266.259
3171691.0,1708758266.3
3171680.0,1708758266.34
3172202.0,1708758266.379
3172361.0,1708758266.42
3172158.0,1708758266.459
3172337.0,1708758266.499
3172439.0,1708758266.541
3172673.0,1708758266.579
3172568.0,1708758266.619
3173017.0,1708758266.661
3173031.0,1708758266.7
3173560.0,1708758266.74
3173750.0,1708758266.781
3173539.0,1708758266.82
3173715.0,1708758266.86
3174050.0,1708758266.901
3174384.0,1708758266.941
3174267.0,1708758266.98
3174653.0,1708758267.021
3175118.0,1708758267.06
3175175.0,1708758267.1
3175351.0,1708758267.142
3175237.0,1708758267.18
3175134.0,1708758267.22
3175886.0,1708758267.261
3175922.0,1708758267.3
3176122.0,1708758267.341
3176059.0,1708758267.382
3176012.0,1708758267.421
3176650.0,1708758267.461
3176570.0,1708758267.502
3176869.0,1708758267.542
3177119.0,1708758267.581
3176913.0,1708758267.622
3177540.0,1708758267.661
3177861.0,1708758267.701
3177826.0,1708758267.743
3178012.0,1708758267.781
3178248.0,1708758267.821
3178599.0,1708758267.863
3178360.0,1708758267.901
3178451.0,1708758267.942
3178586.0,1708758267.983
3179213.0,1708758268.022
3179300.0,1708758268.062
3179968.0,1708758268.103
3179528.0,1708758268.143
3179308.0,1708758268.182
3179746.0,1708758268.223
3179681.0,1708758268.262
3180022.0,1708758268.302
3179966.0,1708758268.344
3179886.0,1708758268.383
3180319.0,1708758268.423
3180855.0,1708758268.464
3181755.0,1708758268.503
3182698.0,1708758268.544
3186467.0,1708758268.623
3189153.0,1708758268.663
3183996.0,1708758268.584
3191510.0,1708758268.704
3194759.0,1708758268.783
3196815.0,1708758268.863
3195330.0,1708758268.824
3193412.0,1708758268.744
3199258.0,1708758268.904
3201403.0,1708758268.984
3201032.0,1708758268.945
3198483.0,1708758269.024
3193935.0,1708758269.065
3194446.0,1708758269.145
3193904.0,1708758269.104
3193602.0,1708758269.224
3192272.0,1708758269.305
3194206.0,1708758269.185
3191923.0,1708758269.264
3192930.0,1708758269.345
3192760.0,1708758269.426
3192842.0,1708758269.384
3192769.0,1708758269.465
3192527.0,1708758269.505
3193234.0,1708758269.547
3193659.0,1708758269.585
3193939.0,1708758269.625
3193885.0,1708758269.666
3191626.0,1708758269.705
3190591.0,1708758269.746
3189599.0,1708758269.786
3189290.0,1708758269.862
3189161.0,1708758269.824
3190047.0,1708758269.903
3191311.0,1708758269.983
3191080.0,1708758269.943
3191230.0,1708758270.024
3191164.0,1708758270.063
3190596.0,1708758270.103
3191966.0,1708758270.145
3193311.0,1708758270.185
3193848.0,1708758270.222
3194264.0,1708758270.263
3194383.0,1708758270.302
3194402.0,1708758270.343
3193911.0,1708758270.384
3193946.0,1708758270.423
3194493.0,1708758270.464
3195201.0,1708758270.505
3195475.0,1708758270.543
3195755.0,1708758270.582
3195503.0,1708758270.624
3195390.0,1708758270.663
3195525.0,1708758270.703
3195881.0,1708758270.745
3196412.0,1708758270.783
3197605.0,1708758270.824
3198532.0,1708758270.865
3199376.0,1708758270.902
3199650.0,1708758270.943
3199915.0,1708758270.984
3200374.0,1708758271.023
3200268.0,1708758271.063
3200336.0,1708758271.105
3200822.0,1708758271.145
3201596.0,1708758271.184
3202388.0,1708758271.223
3203468.0,1708758271.263
3204549.0,1708758271.303
3204873.0,1708758271.345
3204906.0,1708758271.383
3204859.0,1708758271.424
3205019.0,1708758271.465
3204939.0,1708758271.504
3204663.0,1708758271.543
3205461.0,1708758271.584
3205694.0,1708758271.623
3206113.0,1708758271.663
3206691.0,1708758271.704
3207471.0,1708758271.744
3207470.0,1708758271.781
3207430.0,1708758271.824
3207058.0,1708758271.863
3206818.0,1708758271.902
3206076.0,1708758271.944
3205684.0,1708758271.983
3205740.0,1708758272.023
3206105.0,1708758272.064
3206837.0,1708758272.108
3207214.0,1708758272.149
3207936.0,1708758272.19
3208418.0,1708758272.229
3208854.0,1708758272.269
3209416.0,1708758272.31
3209504.0,1708758272.349
3209823.0,1708758272.389
3209822.0,1708758272.43
3210175.0,1708758272.469
3210665.0,1708758272.509
3211293.0,1708758272.551
3211899.0,1708758272.59
3211981.0,1708758272.628
3212472.0,1708758272.669
3212659.0,1708758272.708
3213585.0,1708758272.749
3213685.0,1708758272.79
3213453.0,1708758272.829
3214238.0,1708758272.869
3214381.0,1708758272.911
3214490.0,1708758272.949
3214887.0,1708758272.988
3215068.0,1708758273.029
3215591.0,1708758273.069
3215598.0,1708758273.109
3215659.0,1708758273.151
3215386.0,1708758273.189
3215579.0,1708758273.23
3216032.0,1708758273.271
3215960.0,1708758273.308
3216312.0,1708758273.349
3216366.0,1708758273.39
3216828.0,1708758273.429
3216972.0,1708758273.469
3217476.0,1708758273.51
3217734.0,1708758273.55
3217893.0,1708758273.59
3217351.0,1708758273.629
3217749.0,1708758273.668
3218054.0,1708758273.709
3218183.0,1708758273.75
3218561.0,1708758273.789
3218144.0,1708758273.829
3218418.0,1708758273.87
3218679.0,1708758273.91
3218772.0,1708758273.951
3219152.0,1708758273.989
3219258.0,1708758274.028
3219272.0,1708758274.069
3219605.0,1708758274.11
3219932.0,1708758274.15
3220155.0,1708758274.189
3219969.0,1708758274.231
3220517.0,1708758274.27
3220675.0,1708758274.31
3220794.0,1708758274.352
3220924.0,1708758274.388
3220870.0,1708758274.429
3221378.0,1708758274.47
3221195.0,1708758274.509
3221380.0,1708758274.55
3221456.0,1708758274.59
3222024.0,1708758274.63
3221861.0,1708758274.67
3221604.0,1708758274.711
3221260.0,1708758274.749
3221596.0,1708758274.789
3221559.0,1708758274.83
3221586.0,1708758274.869
3222215.0,1708758274.909
3222346.0,1708758274.951
3222210.0,1708758274.99
3222551.0,1708758275.03
3222649.0,1708758275.071
3223056.0,1708758275.108
3223201.0,1708758275.149
3223596.0,1708758275.19
3223478.0,1708758275.229
3223635.0,1708758275.269
3223874.0,1708758275.311
3223767.0,1708758275.351
3223900.0,1708758275.39
3224540.0,1708758275.432
3224416.0,1708758275.469
3224999.0,1708758275.509
3225208.0,1708758275.551
3224728.0,1708758275.589
3224868.0,1708758275.629
3224714.0,1708758275.671
3225022.0,1708758275.71
3225644.0,1708758275.751
3225577.0,1708758275.791
3225497.0,1708758275.829
3225595.0,1708758275.869
3225478.0,1708758275.91
3225618.0,1708758275.95
3225796.0,1708758275.989
3226094.0,1708758276.03
3226339.0,1708758276.069
3227125.0,1708758276.109
3226524.0,1708758276.151
3226756.0,1708758276.19
3227075.0,1708758276.23
3227545.0,1708758276.271
3227637.0,1708758276.311
3227930.0,1708758276.35
3227422.0,1708758276.39
3227529.0,1708758276.429
3227945.0,1708758276.47
3228361.0,1708758276.511
3228064.0,1708758276.551
3228249.0,1708758276.591
3228303.0,1708758276.632
3228860.0,1708758276.669
3228424.0,1708758276.709
3228671.0,1708758276.751
3228941.0,1708758276.79
3228828.0,1708758276.83
3229051.0,1708758276.871
3229072.0,1708758276.908
3229331.0,1708758276.95
3229467.0,1708758276.99
3229407.0,1708758277.029
3230355.0,1708758277.069
3230126.0,1708758277.11
3230192.0,1708758277.15
3230747.0,1708758277.19
3230837.0,1708758277.231
3230437.0,1708758277.27
3230498.0,1708758277.311
3230822.0,1708758277.352
3230772.0,1708758277.391
3230821.0,1708758277.429
3231024.0,1708758277.47
3231073.0,1708758277.51
3231582.0,1708758277.551
3231799.0,1708758277.591
3231709.0,1708758277.63
3231881.0,1708758277.671
3231783.0,1708758277.712
3232685.0,1708758277.79
3232078.0,1708758277.752
3232506.0,1708758277.871
3232899.0,1708758277.832
3233194.0,1708758277.911
3232973.0,1708758277.951
3233206.0,1708758278.03
3232867.0,1708758277.99
3233577.0,1708758278.11
3233433.0,1708758278.071
3233362.0,1708758278.192
3233314.0,1708758278.231
3233688.0,1708758278.271
3233506.0,1708758278.311
3233678.0,1708758278.151
3233989.0,1708758278.35
3234128.0,1708758278.39
3234046.0,1708758278.471
3234698.0,1708758278.431
3234543.0,1708758278.511
3235073.0,1708758278.553
3234793.0,1708758278.591
3235201.0,1708758278.632
3235047.0,1708758278.671
3234937.0,1708758278.71
3235232.0,1708758278.751
3234905.0,1708758278.791
3235431.0,1708758278.831
3235641.0,1708758278.871
3235660.0,1708758278.912
3235775.0,1708758278.952
3236026.0,1708758278.991
3236354.0,1708758279.032
3236151.0,1708758279.071
3236280.0,1708758279.111
3236760.0,1708758279.153
3236665.0,1708758279.192
3236493.0,1708758279.23
3236588.0,1708758279.271
3236340.0,1708758279.31
3237185.0,1708758279.351
3237120.0,1708758279.392
3237468.0,1708758279.431
3237365.0,1708758279.469
3237151.0,1708758279.51
3237162.0,1708758279.55
3237439.0,1708758279.59
3237871.0,1708758279.631
3237770.0,1708758279.67
3237510.0,1708758279.71
3237868.0,1708758279.752
3238365.0,1708758279.79
3237761.0,1708758279.831
3238680.0,1708758279.872
3238019.0,1708758279.911
3238096.0,1708758279.952
3238794.0,1708758279.993
3238467.0,1708758280.032
3238367.0,1708758280.07
3238366.0,1708758280.111
3238759.0,1708758280.151
3238790.0,1708758280.191
3239079.0,1708758280.232
3239429.0,1708758280.271
3239023.0,1708758280.312
3239235.0,1708758280.353
3239551.0,1708758280.392
3239503.0,1708758280.43
3239749.0,1708758280.471
3239509.0,1708758280.511
3239967.0,1708758280.552
3239652.0,1708758280.592
3239652.0,1708758280.631
3239686.0,1708758280.672
3239626.0,1708758280.713
3239614.0,1708758280.753
3240249.0,1708758280.79
3240454.0,1708758280.832
3239949.0,1708758280.871
3240249.0,1708758280.911
3240505.0,1708758280.953
3240416.0,1708758280.991
3240266.0,1708758281.032
3240328.0,1708758281.073
3240425.0,1708758281.112
3240344.0,1708758281.151
3240330.0,1708758281.192
3241040.0,1708758281.231
3241283.0,1708758281.271
3240926.0,1708758281.312
3240767.0,1708758281.352
3241172.0,1708758281.392
3241129.0,1708758281.433
3241270.0,1708758281.472
3242006.0,1708758281.511
3241279.0,1708758281.552
3241819.0,1708758281.591
3241752.0,1708758281.631
3241845.0,1708758281.673
3241900.0,1708758281.712
3242089.0,1708758281.753
3242168.0,1708758281.793
3241871.0,1708758281.832
3242417.0,1708758281.871
3242293.0,1708758281.912
3241979.0,1708758281.952
3242896.0,1708758281.991
3242592.0,1708758282.032
3242340.0,1708758282.071
3242378.0,1708758282.112
3242708.0,1708758282.153
3242720.0,1708758282.192
3242683.0,1708758282.232
3243211.0,1708758282.273
3242674.0,1708758282.313
3243115.0,1708758282.352
3243157.0,1708758282.392
3243246.0,1708758282.431
3243616.0,1708758282.472
3243366.0,1708758282.513
3243421.0,1708758282.553
3243699.0,1708758282.591
3243344.0,1708758282.633
3244011.0,1708758282.672
3243913.0,1708758282.712
3243825.0,1708758282.754
3243537.0,1708758282.793
3243827.0,1708758282.833
3243916.0,1708758282.872
3243927.0,1708758282.911
3244463.0,1708758282.952
3244073.0,1708758282.993
3244642.0,1708758283.032
3244421.0,1708758283.072
3244127.0,1708758283.113
3244843.0,1708758283.153
3244904.0,1708758283.193
3244617.0,1708758283.232
3244806.0,1708758283.271
3245335.0,1708758283.312
3245363.0,1708758283.354
3245394.0,1708758283.392
3245405.0,1708758283.433
3245324.0,1708758283.474
3245050.0,1708758283.513
3244914.0,1708758283.552
3245255.0,1708758283.592
3245825.0,1708758283.632
3245627.0,1708758283.672
3245865.0,1708758283.713
3245878.0,1708758283.753
3245921.0,1708758283.792
3246070.0,1708758283.833
3246225.0,1708758283.872
3246386.0,1708758283.912
3246224.0,1708758283.954
3245801.0,1708758283.993
3246488.0,1708758284.033
3246374.0,1708758284.074
3246206.0,1708758284.107
3246368.0,1708758284.148
3246632.0,1708758284.189
3246423.0,1708758284.228
3246726.0,1708758284.268
3246871.0,1708758284.309
3246502.0,1708758284.348
3246880.0,1708758284.388
3246760.0,1708758284.429
3247050.0,1708758284.468
3247395.0,1708758284.508
3247339.0,1708758284.55
3247123.0,1708758284.588
3247786.0,1708758284.628
3247570.0,1708758284.669
3248054.0,1708758284.709
3247939.0,1708758284.75
3248111.0,1708758284.79
3248054.0,1708758284.829
3248039.0,1708758284.87
3248528.0,1708758284.909
3248366.0,1708758284.949
3248441.0,1708758284.988
3248365.0,1708758285.029
3248708.0,1708758285.068
3248535.0,1708758285.108
3248522.0,1708758285.15
3248803.0,1708758285.188
3249366.0,1708758285.229
3248633.0,1708758285.27
3248589.0,1708758285.309
3249346.0,1708758285.35
3249224.0,1708758285.389
3249016.0,1708758285.428
3249352.0,1708758285.468
3250000.0,1708758285.51
3250049.0,1708758285.55
3250078.0,1708758285.589
3250071.0,1708758285.63
3249810.0,1708758285.67
3250068.0,1708758285.71
3250072.0,1708758285.75
3250443.0,1708758285.828
3250775.0,1708758285.788
3249966.0,1708758285.87
3250905.0,1708758285.95
3250216.0,1708758285.909
3250443.0,1708758285.99
3250476.0,1708758286.03
3251077.0,1708758286.07
3250983.0,1708758286.149
3251298.0,1708758286.189
3250995.0,1708758286.109
3251220.0,1708758286.23
3251535.0,1708758286.269
3251271.0,1708758286.309
3251321.0,1708758286.351
3251289.0,1708758286.39
3251755.0,1708758286.428
3251763.0,1708758286.47
3251760.0,1708758286.509
3251604.0,1708758286.55
3251908.0,1708758286.59
3252229.0,1708758286.629
3251998.0,1708758286.67
3252184.0,1708758286.711
3252176.0,1708758286.751
3252333.0,1708758286.79
3252331.0,1708758286.831
3252369.0,1708758286.87
3252639.0,1708758286.91
3252810.0,1708758286.95
3252935.0,1708758286.989
3253102.0,1708758287.029
3252550.0,1708758287.07
3253242.0,1708758287.109
3253072.0,1708758287.15
3253251.0,1708758287.191
3253317.0,1708758287.23
3252919.0,1708758287.27
3253400.0,1708758287.311
3253396.0,1708758287.349
3253337.0,1708758287.389
3253353.0,1708758287.43
3253832.0,1708758287.469
3253533.0,1708758287.51
3253418.0,1708758287.552
3253917.0,1708758287.59
3254186.0,1708758287.672
3254358.0,1708758287.63
3254393.0,1708758287.709
3254236.0,1708758287.75
3254391.0,1708758287.79
3254832.0,1708758287.829
3254723.0,1708758287.87
3255027.0,1708758287.911
3254836.0,1708758287.951
3255039.0,1708758287.989
3255265.0,1708758288.031
3254915.0,1708758288.07
3255368.0,1708758288.11
3255418.0,1708758288.152
3255541.0,1708758288.191
3255840.0,1708758288.229
3255454.0,1708758288.27
3256119.0,1708758288.309
3255526.0,1708758288.35
3256045.0,1708758288.391
3256458.0,1708758288.43
3256311.0,1708758288.471
3255953.0,1708758288.512
3256486.0,1708758288.55
3256091.0,1708758288.589
3256230.0,1708758288.63
3256019.0,1708758288.67
3256185.0,1708758288.71
3256481.0,1708758288.752
3256603.0,1708758288.79
3256720.0,1708758288.831
3256782.0,1708758288.872
3256710.0,1708758288.909
3256715.0,1708758288.95
3257459.0,1708758288.991
3257218.0,1708758289.03
3256848.0,1708758289.07
3257224.0,1708758289.111
3257067.0,1708758289.151
3257310.0,1708758289.191
3257983.0,1708758289.232
3257893.0,1708758289.269
3257440.0,1708758289.31
3258322.0,1708758289.351
3257770.0,1708758289.39
3258196.0,1708758289.43
3258715.0,1708758289.472
3258077.0,1708758289.511
3258025.0,1708758289.552
3257981.0,1708758289.59
3258511.0,1708758289.63
3258042.0,1708758289.67
3258791.0,1708758289.711
3258806.0,1708758289.751
3258193.0,1708758289.79
3258480.0,1708758289.831
3258846.0,1708758289.87
3258711.0,1708758289.911
3258980.0,1708758289.953
3259054.0,1708758289.991
3258730.0,1708758290.031
3259086.0,1708758290.071
3259676.0,1708758290.11
3259705.0,1708758290.151
3259636.0,1708758290.191
3259597.0,1708758290.23
3260058.0,1708758290.271
3259885.0,1708758290.312
3260152.0,1708758290.352
3260396.0,1708758290.392
3260393.0,1708758290.431
3260668.0,1708758290.47
3260278.0,1708758290.51
3260632.0,1708758290.552
3260505.0,1708758290.591
3260475.0,1708758290.631
3260568.0,1708758290.672
3260480.0,1708758290.711
3260838.0,1708758290.752
3260710.0,1708758290.791
3260780.0,1708758290.83
3261354.0,1708758290.87
3261338.0,1708758290.912
3261222.0,1708758290.951
3261899.0,1708758290.991
3261270.0,1708758291.032
3261541.0,1708758291.072
3261628.0,1708758291.112
3261609.0,1708758291.152
3261570.0,1708758291.19
3261730.0,1708758291.23
3261750.0,1708758291.272
3261816.0,1708758291.311
3262593.0,1708758291.352
3262443.0,1708758291.393
3261917.0,1708758291.432
3262114.0,1708758291.47
3262073.0,1708758291.511
3262383.0,1708758291.551
3262277.0,1708758291.591
3262158.0,1708758291.632
3262154.0,1708758291.671
3262250.0,1708758291.712
3262168.0,1708758291.753
3262643.0,1708758291.792
3262959.0,1708758291.83
3262619.0,1708758291.871
3262384.0,1708758291.911
3262798.0,1708758291.952
3263235.0,1708758291.992
3262834.0,1708758292.031
3262822.0,1708758292.072
3262804.0,1708758292.113
3263333.0,1708758292.153
3263461.0,1708758292.19
3263135.0,1708758292.232
3263441.0,1708758292.27
3263254.0,1708758292.311
3263559.0,1708758292.353
3263324.0,1708758292.391
3263222.0,1708758292.432
3263570.0,1708758292.473
3263782.0,1708758292.512
3263545.0,1708758292.553
3263968.0,1708758292.591
3263712.0,1708758292.631
3264179.0,1708758292.712
3263505.0,1708758292.671
3263883.0,1708758292.752
3264009.0,1708758292.792
3264109.0,1708758292.833
3264401.0,1708758292.872
3264715.0,1708758292.912
3264600.0,1708758292.952
3264384.0,1708758292.991
3264705.0,1708758293.031
3264501.0,1708758293.072
3265249.0,1708758293.112
3264915.0,1708758293.152
3265062.0,1708758293.193
3265204.0,1708758293.232
3265390.0,1708758293.273
3265728.0,1708758293.312
3265874.0,1708758293.352
3265570.0,1708758293.391
3265787.0,1708758293.433
3266098.0,1708758293.472
3266282.0,1708758293.512
3265947.0,1708758293.554
3265636.0,1708758293.592
3266658.0,1708758293.633
3266414.0,1708758293.672
3266438.0,1708758293.711
3266223.0,1708758293.752
3266143.0,1708758293.793
3266641.0,1708758293.832
3267015.0,1708758293.872
3266843.0,1708758293.913
3266285.0,1708758293.953
3266828.0,1708758293.993
3266524.0,1708758294.032
3266670.0,1708758294.071
3266954.0,1708758294.111
3266922.0,1708758294.153
3267119.0,1708758294.192
3267248.0,1708758294.232
3267182.0,1708758294.273
3267193.0,1708758294.313
3267346.0,1708758294.354
3267446.0,1708758294.392
3266936.0,1708758294.431
3266967.0,1708758294.472
3266640.0,1708758294.513
3266730.0,1708758294.553
3267208.0,1708758294.592
3268036.0,1708758294.634
3267865.0,1708758294.673
3267681.0,1708758294.713
3267455.0,1708758294.753
3267764.0,1708758294.791
3268215.0,1708758294.831
3267487.0,1708758294.872
3267580.0,1708758294.912
3268245.0,1708758294.952
3268166.0,1708758294.993
3268356.0,1708758295.032
3268762.0,1708758295.072
3268125.0,1708758295.114
3268522.0,1708758295.154
3268091.0,1708758295.193
3268448.0,1708758295.232
3268248.0,1708758295.272
3268803.0,1708758295.312
3268045.0,1708758295.354
3268322.0,1708758295.393
3268493.0,1708758295.433
3268640.0,1708758295.474
3268335.0,1708758295.513
3268908.0,1708758295.552
3268874.0,1708758295.593
3268921.0,1708758295.632
3269043.0,1708758295.672
3269111.0,1708758295.714
3269226.0,1708758295.753
3269483.0,1708758295.793
3269431.0,1708758295.834
3269856.0,1708758295.874
3269593.0,1708758295.912
3269598.0,1708758295.954
3269482.0,1708758295.992
3269746.0,1708758296.032
3269799.0,1708758296.074
3269970.0,1708758296.117
3270187.0,1708758296.157
3270337.0,1708758296.198
3269844.0,1708758296.237
3270577.0,1708758296.277
3270633.0,1708758296.318
3270542.0,1708758296.358
3270877.0,1708758296.397
3270828.0,1708758296.438
3271006.0,1708758296.477
3271188.0,1708758296.517
3270820.0,1708758296.559
3271248.0,1708758296.598
3270974.0,1708758296.638
3271504.0,1708758296.679
3271194.0,1708758296.718
3271354.0,1708758296.759
3271473.0,1708758296.8
3271618.0,1708758296.839
3271251.0,1708758296.879
3271503.0,1708758296.921
3271782.0,1708758296.96
3272026.0,1708758297.0
3272107.0,1708758297.039
3271413.0,1708758297.078
3271813.0,1708758297.119
3271445.0,1708758297.161
3272140.0,1708758297.199
3271741.0,1708758297.239
3271926.0,1708758297.281
3271601.0,1708758297.32
3272156.0,1708758297.364
3271702.0,1708758297.399
3271770.0,1708758297.438
3271804.0,1708758297.478
3272499.0,1708758297.52
3272426.0,1708758297.559
3272355.0,1708758297.598
3272599.0,1708758297.639
3273042.0,1708758297.679
3272462.0,1708758297.719
3272712.0,1708758297.761
3272952.0,1708758297.799
3273180.0,1708758297.839
3272721.0,1708758297.881
3273650.0,1708758297.92
3273291.0,1708758297.961
3273600.0,1708758298.001
3273334.0,1708758298.039
3273075.0,1708758298.079
3273041.0,1708758298.12
3273303.0,1708758298.2
3273161.0,1708758298.16
3273081.0,1708758298.241
3273105.0,1708758298.28
3273504.0,1708758298.362
3273546.0,1708758298.32
3273174.0,1708758298.399
3273562.0,1708758298.439
3273325.0,1708758298.48
3273769.0,1708758298.519
3273692.0,1708758298.56
3274066.0,1708758298.601
3274051.0,1708758298.64
3274028.0,1708758298.68
3273997.0,1708758298.722
3273792.0,1708758298.759
3274095.0,1708758298.799
3274463.0,1708758298.84
3274754.0,1708758298.88
3274073.0,1708758298.92
3274909.0,1708758298.962
3274848.0,1708758299.0
3274749.0,1708758299.04
3274627.0,1708758299.082
3274275.0,1708758299.119
3274926.0,1708758299.16
3275150.0,1708758299.2
3274938.0,1708758299.24
3275124.0,1708758299.28
3275101.0,1708758299.321
3275224.0,1708758299.361
3275425.0,1708758299.401
3275672.0,1708758299.442
3275916.0,1708758299.479
3275982.0,1708758299.519
3275566.0,1708758299.561
3275566.0,1708758299.6
3275748.0,1708758299.64
3276016.0,1708758299.681
3275578.0,1708758299.721
3275814.0,1708758299.761
3275936.0,1708758299.802
3276195.0,1708758299.841
3275700.0,1708758299.879
3276037.0,1708758299.92
3275985.0,1708758299.96
3275983.0,1708758300.0
3275679.0,1708758300.041
3275942.0,1708758300.08
3275953.0,1708758300.12
3275780.0,1708758300.162
3275847.0,1708758300.202
3275906.0,1708758300.241
3275893.0,1708758300.282
3276159.0,1708758300.321
3276088.0,1708758300.36
3276115.0,1708758300.401
3276442.0,1708758300.44
3276623.0,1708758300.48
3277030.0,1708758300.522
3276862.0,1708758300.561
3276766.0,1708758300.6
3276747.0,1708758300.641
3277281.0,1708758300.681
3276859.0,1708758300.721
3276709.0,1708758300.763
3277145.0,1708758300.801
3277079.0,1708758300.841
3277396.0,1708758300.881
3277724.0,1708758300.92
3277107.0,1708758300.961
3277275.0,1708758301.001
3277436.0,1708758301.04
3277328.0,1708758301.081
3277596.0,1708758301.122
3276953.0,1708758301.162
3276996.0,1708758301.201
3277194.0,1708758301.243
3277318.0,1708758301.282
3277651.0,1708758301.32
3277879.0,1708758301.4
3277489.0,1708758301.362
3277781.0,1708758301.441
3277729.0,1708758301.482
3277415.0,1708758301.521
3277859.0,1708758301.562
3277785.0,1708758301.603
3277600.0,1708758301.642
3278100.0,1708758301.68
3278318.0,1708758301.721
3278345.0,1708758301.761
3278042.0,1708758301.801
3277441.0,1708758301.842
3277815.0,1708758301.881
3278026.0,1708758301.921
3278309.0,1708758301.963
3277989.0,1708758302.002
3278230.0,1708758302.081
3278768.0,1708758302.121
3278079.0,1708758302.04
3278054.0,1708758302.162
3278660.0,1708758302.202
3278802.0,1708758302.241
3279286.0,1708758302.282
3278663.0,1708758302.323
3279032.0,1708758302.363
3278904.0,1708758302.4
3279082.0,1708758302.441
3279366.0,1708758302.48
3279282.0,1708758302.521
3279704.0,1708758302.562
3279327.0,1708758302.601
3279318.0,1708758302.641
3279320.0,1708758302.682
3278845.0,1708758302.722
3279945.0,1708758302.763
3279830.0,1708758302.803
3279163.0,1708758302.842
3279369.0,1708758302.88
3279499.0,1708758302.922
3279720.0,1708758302.962
3279180.0,1708758303.001
3279388.0,1708758303.042
3279383.0,1708758303.082
3279688.0,1708758303.122
3279723.0,1708758303.164
3279545.0,1708758303.202
3279268.0,1708758303.241
3279365.0,1708758303.282
3279830.0,1708758303.321
3280113.0,1708758303.362
3279894.0,1708758303.403
3279707.0,1708758303.442
3279616.0,1708758303.482
3280239.0,1708758303.524
3280067.0,1708758303.561
3280217.0,1708758303.601
3280330.0,1708758303.642
3280459.0,1708758303.681
3279953.0,1708758303.722
3280227.0,1708758303.764
3280363.0,1708758303.802
3280680.0,1708758303.842
3280612.0,1708758303.884
3280993.0,1708758303.921
3280128.0,1708758303.962
3280492.0,1708758304.002
3281006.0,1708758304.042
3280867.0,1708758304.082
3280752.0,1708758304.123
3280565.0,1708758304.163
3280545.0,1708758304.203
3280654.0,1708758304.244
3281004.0,1708758304.321
3280655.0,1708758304.363
3280669.0,1708758304.281
3280945.0,1708758304.402
3280890.0,1708758304.442
3280699.0,1708758304.483
3280945.0,1708758304.564
3281013.0,1708758304.604
3280606.0,1708758304.641
3280589.0,1708758304.723
3281188.0,1708758304.523
3281146.0,1708758304.681
3280981.0,1708758304.763
3281282.0,1708758304.801
3281312.0,1708758304.842
3280853.0,1708758304.882
3281220.0,1708758304.922
3281154.0,1708758304.964
3281567.0,1708758305.002
3281475.0,1708758305.082
3281309.0,1708758305.04
3281641.0,1708758305.122
3281571.0,1708758305.162
3281601.0,1708758305.202
3281867.0,1708758305.241
3282061.0,1708758305.282
3282686.0,1708758305.323
3282529.0,1708758305.363
3282552.0,1708758305.403
3282374.0,1708758305.523
3282447.0,1708758305.563
3282417.0,1708758305.444
3282380.0,1708758305.483
3282805.0,1708758305.602
3282930.0,1708758305.642
3282746.0,1708758305.683
3282441.0,1708758305.722
3282834.0,1708758305.763
3282457.0,1708758305.804
3282620.0,1708758305.843
3282441.0,1708758305.883
3282196.0,1708758305.923
3282527.0,1708758305.963
3282468.0,1708758306.002
3282576.0,1708758306.043
3282597.0,1708758306.083
3282794.0,1708758306.123
3282889.0,1708758306.165
3282877.0,1708758306.203
3283158.0,1708758306.244
3283125.0,1708758306.283
3283223.0,1708758306.322
3283535.0,1708758306.363
3282824.0,1708758306.404
3283134.0,1708758306.443
3282854.0,1708758306.483
3283136.0,1708758306.524
3282892.0,1708758306.564
3283163.0,1708758306.603
3283479.0,1708758306.644
3283608.0,1708758306.683
3283148.0,1708758306.724
3283861.0,1708758306.766
3283261.0,1708758306.842
3283597.0,1708758306.802
3283217.0,1708758306.884
3283533.0,1708758306.923
3283847.0,1708758306.964
3283652.0,1708758307.004
3283984.0,1708758307.043
3283230.0,1708758307.084
3284085.0,1708758307.125
3284118.0,1708758307.202
3283768.0,1708758307.244
3284115.0,1708758307.163
3283724.0,1708758307.283
3283865.0,1708758307.323
3283829.0,1708758307.404
3284156.0,1708758307.522
3284539.0,1708758307.485
3284334.0,1708758307.563
3284279.0,1708758307.444
3284182.0,1708758307.604
3284144.0,1708758307.365
3284364.0,1708758307.643
3285038.0,1708758307.804
3284677.0,1708758307.764
3284428.0,1708758307.724
3284928.0,1708758307.845
3284885.0,1708758307.884
3284936.0,1708758307.683
3284843.0,1708758307.922
3285194.0,1708758308.003
3284705.0,1708758308.043
3285057.0,1708758308.084
3285658.0,1708758308.158
3285781.0,1708758308.199
3285517.0,1708758308.319
3285340.0,1708758308.358
3285407.0,1708758308.278
3285810.0,1708758308.238
3285051.0,1708758307.964
3285059.0,1708758308.117
3285459.0,1708758308.398
3285896.0,1708758308.439
3285947.0,1708758308.478
3285788.0,1708758308.518
3285756.0,1708758308.56
3285925.0,1708758308.599
3286559.0,1708758308.639
3286247.0,1708758308.719
3286329.0,1708758308.68
3286420.0,1708758308.76
3286158.0,1708758308.801
3286552.0,1708758308.84
3286801.0,1708758308.88
3286279.0,1708758308.921
3286238.0,1708758308.961
3286054.0,1708758309.04
3285797.0,1708758309.079
3286573.0,1708758308.999
3286254.0,1708758309.162
3286436.0,1708758309.12
3286874.0,1708758309.2
3286667.0,1708758309.24
3286590.0,1708758309.282
3287076.0,1708758309.321
3286286.0,1708758309.36
3286626.0,1708758309.4
3286576.0,1708758309.44
3287100.0,1708758309.48
3286470.0,1708758309.521
3286869.0,1708758309.561
3287282.0,1708758309.601
3287156.0,1708758309.642
3286934.0,1708758309.681
3287632.0,1708758309.8
3286940.0,1708758309.719
3287598.0,1708758309.84
3287190.0,1708758309.761
3287763.0,1708758309.881
3287311.0,1708758309.92
3287426.0,1708758309.961
3287769.0,1708758310.002
3287671.0,1708758310.041
3287651.0,1708758310.079
3287639.0,1708758310.121
3288099.0,1708758310.16
3287513.0,1708758310.2
3287325.0,1708758310.241
3287810.0,1708758310.28
3288035.0,1708758310.32
3287619.0,1708758310.362
3287771.0,1708758310.401
3288269.0,1708758310.441
3288439.0,1708758310.482
3288309.0,1708758310.521
3287742.0,1708758310.56
3287893.0,1708758310.601
3288008.0,1708758310.64
3288248.0,1708758310.68
3288663.0,1708758310.721
3288683.0,1708758310.761
3288899.0,1708758310.801
3288213.0,1708758310.842
3288015.0,1708758310.881
3288600.0,1708758310.92
3288632.0,1708758310.962
3288415.0,1708758311.0
3288416.0,1708758311.04
3288609.0,1708758311.121
3288382.0,1708758311.082
3288683.0,1708758311.162
3288639.0,1708758311.202
3288913.0,1708758311.242
3289224.0,1708758311.28
3289755.0,1708758311.321
3289359.0,1708758311.361
3289324.0,1708758311.401
3289399.0,1708758311.442
3289504.0,1708758311.481
3289915.0,1708758311.521
3289670.0,1708758311.563
3289262.0,1708758311.602
3289563.0,1708758311.64
3289693.0,1708758311.681
3289474.0,1708758311.72
3289602.0,1708758311.761
3289712.0,1708758311.802
3289516.0,1708758311.841
3289725.0,1708758311.881
3289619.0,1708758311.923
3289325.0,1708758311.963
3289942.0,1708758312.0
3289830.0,1708758312.041
3289897.0,1708758312.08
3289896.0,1708758312.121
3290020.0,1708758312.163
3289646.0,1708758312.201
3290025.0,1708758312.241
3289615.0,1708758312.283
3289735.0,1708758312.322
3290399.0,1708758312.361
3290475.0,1708758312.402
3290104.0,1708758312.441
3290044.0,1708758312.481
3290402.0,1708758312.522
3290053.0,1708758312.562
3289989.0,1708758312.602
3289768.0,1708758312.643
3290387.0,1708758312.682
3290532.0,1708758312.72
3290279.0,1708758312.761
3290150.0,1708758312.8
3290298.0,1708758312.84
3290482.0,1708758312.881
3290600.0,1708758312.92
3290365.0,1708758312.961
3290115.0,1708758313.002
3290441.0,1708758313.041
3290643.0,1708758313.081
3290584.0,1708758313.123
3290154.0,1708758313.162
3290325.0,1708758313.202
3290366.0,1708758313.243
3290630.0,1708758313.282
3290491.0,1708758313.321
3290213.0,1708758313.362
3291341.0,1708758313.401
3291121.0,1708758313.441
3290911.0,1708758313.483
3290839.0,1708758313.522
3290766.0,1708758313.563
3290789.0,1708758313.603
3290766.0,1708758313.643
3290742.0,1708758313.681
3290956.0,1708758313.722
3291254.0,1708758313.762
3291496.0,1708758313.801
3291408.0,1708758313.842
3291119.0,1708758313.881
3291245.0,1708758313.921
3291517.0,1708758313.963
3291816.0,1708758314.002
3291547.0,1708758314.042
3291616.0,1708758314.083
3291856.0,1708758314.122
3291622.0,1708758314.163
3291746.0,1708758314.204
3291341.0,1708758314.241
3291664.0,1708758314.281
3291543.0,1708758314.322
3291487.0,1708758314.362
3291931.0,1708758314.402
3291815.0,1708758314.443
3291728.0,1708758314.483
3292112.0,1708758314.523
3291804.0,1708758314.563
3292146.0,1708758314.601
3291881.0,1708758314.641
3291789.0,1708758314.683
3291437.0,1708758314.722
3292332.0,1708758314.763
3291940.0,1708758314.803
3292538.0,1708758314.843
3292289.0,1708758314.883
3292240.0,1708758314.922
3291957.0,1708758314.962
3292028.0,1708758315.002
3291874.0,1708758315.042
3292217.0,1708758315.081
3292451.0,1708758315.122
3292343.0,1708758315.163
3292339.0,1708758315.202
3292092.0,1708758315.242
3292012.0,1708758315.281
3292336.0,1708758315.32
3292406.0,1708758315.361
3292063.0,1708758315.401
3292027.0,1708758315.441
3292279.0,1708758315.481
3292477.0,1708758315.522
3292389.0,1708758315.562
3291975.0,1708758315.602
3292195.0,1708758315.643
3292499.0,1708758315.682
3292605.0,1708758315.765
3292244.0,1708758315.723
3292467.0,1708758315.803
3292142.0,1708758315.843
3292558.0,1708758315.885
3292410.0,1708758315.922
3292715.0,1708758315.963
3292779.0,1708758316.003
3292894.0,1708758316.042
3292762.0,1708758316.083
3292537.0,1708758316.124
3292467.0,1708758316.164
3292987.0,1708758316.203
3293393.0,1708758316.244
3293657.0,1708758316.282
3293479.0,1708758316.322
3292875.0,1708758316.364
3293160.0,1708758316.403
3292686.0,1708758316.443
3292661.0,1708758316.484
3292870.0,1708758316.523
3292300.0,1708758316.564
3292818.0,1708758316.603
3292927.0,1708758316.642
3292663.0,1708758316.682
3292626.0,1708758316.724
3292685.0,1708758316.764
3292650.0,1708758316.803
3292832.0,1708758316.844
3292517.0,1708758316.884
3292578.0,1708758316.924
3292279.0,1708758316.964
3292956.0,1708758317.002
3292617.0,1708758317.042
3292392.0,1708758317.084
3292590.0,1708758317.123
3293192.0,1708758317.164
3292612.0,1708758317.204
3292789.0,1708758317.244
3293004.0,1708758317.284
3293228.0,1708758317.323
3293276.0,1708758317.363
3293048.0,1708758317.403
3293414.0,1708758317.444
3293406.0,1708758317.483
3293365.0,1708758317.523
3292903.0,1708758317.565
3292953.0,1708758317.604
3292917.0,1708758317.644
3292932.0,1708758317.683
3292638.0,1708758317.722
3292350.0,1708758317.763
3292435.0,1708758317.804
3292659.0,1708758317.843
3292956.0,1708758317.883
3292872.0,1708758317.924
3292675.0,1708758317.964
3293109.0,1708758318.003
3293506.0,1708758318.044
3293094.0,1708758318.083
3293436.0,1708758318.124
3292957.0,1708758318.166
3292993.0,1708758318.204
3293407.0,1708758318.244
3293237.0,1708758318.283
3293457.0,1708758318.323
3293222.0,1708758318.364
3293679.0,1708758318.404
3293406.0,1708758318.444
3293205.0,1708758318.484
3293711.0,1708758318.525
3294207.0,1708758318.565
3294471.0,1708758318.603
3294287.0,1708758318.644
3294259.0,1708758318.683
3293850.0,1708758318.723
3293353.0,1708758318.804
3293693.0,1708758318.765
3293724.0,1708758318.844
3293292.0,1708758318.885
3293169.0,1708758318.925
3293703.0,1708758318.963
3293547.0,1708758319.004
3294215.0,1708758319.043
3293938.0,1708758319.084
3294928.0,1708758319.125
3294897.0,1708758319.165
3295339.0,1708758319.204
3295446.0,1708758319.245
3295202.0,1708758319.285
3294755.0,1708758319.323
3294097.0,1708758319.365
3294446.0,1708758319.403
3294447.0,1708758319.444
3294628.0,1708758319.485
3294345.0,1708758319.524
3294161.0,1708758319.565
3294068.0,1708758319.606
3293956.0,1708758319.645
3294188.0,1708758319.683
3294055.0,1708758319.724
3294265.0,1708758319.764
3294651.0,1708758319.845
3294134.0,1708758319.884
3294414.0,1708758319.804
3294283.0,1708758319.925
3293984.0,1708758319.966
3294063.0,1708758320.005
3294299.0,1708758320.043
3294573.0,1708758320.084
3294343.0,1708758320.123
3294454.0,1708758320.164
3294551.0,1708758320.205
3294408.0,1708758320.244
3294396.0,1708758320.284
3294483.0,1708758320.325
3294338.0,1708758320.365
3293895.0,1708758320.404
3293904.0,1708758320.445
3293922.0,1708758320.484
3294218.0,1708758320.524
3293975.0,1708758320.566
3294008.0,1708758320.605
3293523.0,1708758320.646
3293972.0,1708758320.686
3294054.0,1708758320.725
3294245.0,1708758320.766
3294116.0,1708758320.807
3294114.0,1708758320.846
3294401.0,1708758320.886
3293902.0,1708758320.928
3294436.0,1708758320.968
3294196.0,1708758321.007
3293920.0,1708758321.048
3294366.0,1708758321.086
3294117.0,1708758321.126
3294094.0,1708758321.168
3294545.0,1708758321.206
3294167.0,1708758321.246
3294151.0,1708758321.288
3294114.0,1708758321.327
3294151.0,1708758321.368
3293796.0,1708758321.407
3293871.0,1708758321.446
3293969.0,1708758321.486
3293872.0,1708758321.527
3293779.0,1708758321.567
3293834.0,1708758321.607
3294123.0,1708758321.648
3294549.0,1708758321.687
3294636.0,1708758321.728
3293915.0,1708758321.767
3293796.0,1708758321.806
3294372.0,1708758321.846
3293990.0,1708758321.888
3294236.0,1708758321.927
3293976.0,1708758321.968
3293975.0,1708758322.008
3294531.0,1708758322.047
3294655.0,1708758322.088
3294169.0,1708758322.127
3294497.0,1708758322.167
3294886.0,1708758322.206
3294504.0,1708758322.248
3294411.0,1708758322.287
3294253.0,1708758322.327
3293798.0,1708758322.448
3294002.0,1708758322.408
3294464.0,1708758322.369
3293683.0,1708758322.487
3293710.0,1708758322.526
3293498.0,1708758322.567
3294106.0,1708758322.608
3293727.0,1708758322.647
3293633.0,1708758322.687
3293862.0,1708758322.729
3294266.0,1708758322.768
3293938.0,1708758322.808
3293978.0,1708758322.847
3294171.0,1708758322.927
3293953.0,1708758322.886
3294841.0,1708758322.969
3294410.0,1708758323.007
3294279.0,1708758323.047
3294675.0,1708758323.089
3294501.0,1708758323.128
3294380.0,1708758323.169
3294228.0,1708758323.209
3294082.0,1708758323.246
3294323.0,1708758323.287
3294027.0,1708758323.328
3293967.0,1708758323.368
3293482.0,1708758323.408
3293963.0,1708758323.488
3294090.0,1708758323.449
3294281.0,1708758323.528
3293449.0,1708758323.568
3294110.0,1708758323.647
3293949.0,1708758323.607
3293694.0,1708758323.688
3293709.0,1708758323.809
3293367.0,1708758323.848
3294043.0,1708758323.727
3293772.0,1708758323.768
3292247.0,1708758323.888
3291896.0,1708758323.928
3291187.0,1708758323.968
3290077.0,1708758324.007
3289107.0,1708758324.048
3288123.0,1708758324.088
3287443.0,1708758324.128
3287210.0,1708758324.17
3286802.0,1708758324.208
3287190.0,1708758324.249
3286328.0,1708758324.288
3287056.0,1708758324.327
3287183.0,1708758324.368
3287492.0,1708758324.409
3287488.0,1708758324.448
3287045.0,1708758324.488
3286609.0,1708758324.529
3286511.0,1708758324.569
3285693.0,1708758324.607
3285845.0,1708758324.648
3286091.0,1708758324.687
3285874.0,1708758324.728
3285714.0,1708758324.77
3285485.0,1708758324.808
3284989.0,1708758324.848
3284501.0,1708758324.89
3283484.0,1708758324.929
3282737.0,1708758324.968
3281848.0,1708758325.008
3281244.0,1708758325.047
3279370.0,1708758325.088
3278521.0,1708758325.129
3278800.0,1708758325.169
3278713.0,1708758325.209
3279049.0,1708758325.25
3278786.0,1708758325.289
3279118.0,1708758325.327
3279300.0,1708758325.369
3279967.0,1708758325.408
3280736.0,1708758325.448
3281022.0,1708758325.489
3281364.0,1708758325.533
3282157.0,1708758325.574
3283115.0,1708758325.615
3283212.0,1708758325.65
3283170.0,1708758325.687
3282552.0,1708758325.729
3280985.0,1708758325.769
3279778.0,1708758325.808
3278564.0,1708758325.849
3278315.0,1708758325.889
3277860.0,1708758325.929
3277803.0,1708758325.971
3277536.0,1708758326.009
3277089.0,1708758326.047
3275920.0,1708758326.089
3275193.0,1708758326.128
3275274.0,1708758326.169
3275119.0,1708758326.21
3275376.0,1708758326.249
3275591.0,1708758326.289
3275329.0,1708758326.33
3276408.0,1708758326.37
3277523.0,1708758326.408
3278134.0,1708758326.449
3279416.0,1708758326.488
3279467.0,1708758326.528
3279492.0,1708758326.57
3278764.0,1708758326.609
3277986.0,1708758326.649
3278616.0,1708758326.69
3280057.0,1708758326.73
3280154.0,1708758326.769
3279932.0,1708758326.809
3279499.0,1708758326.848
3279103.0,1708758326.889
3278352.0,1708758326.93
3278753.0,1708758326.97
3279864.0,1708758327.009
3280507.0,1708758327.051
3281165.0,1708758327.09
3281619.0,1708758327.128
3282156.0,1708758327.17
3282284.0,1708758327.208
3281920.0,1708758327.249
3281400.0,1708758327.29
3280639.0,1708758327.329
3280593.0,1708758327.37
3280392.0,1708758327.411
3280336.0,1708758327.448
3280434.0,1708758327.488
3280350.0,1708758327.53
3281228.0,1708758327.57
3281170.0,1708758327.609
3281652.0,1708758327.65
3282108.0,1708758327.69
3282153.0,1708758327.73
3281735.0,1708758327.77
3281260.0,1708758327.808
3280810.0,1708758327.849
3281225.0,1708758327.89
3281870.0,1708758327.929
3281729.0,1708758327.97
3281919.0,1708758328.011
3281956.0,1708758328.05
3282242.0,1708758328.129
3282326.0,1708758328.088
3282517.0,1708758328.169
3281675.0,1708758328.208
3281209.0,1708758328.289
3281761.0,1708758328.25
3280439.0,1708758328.329
3280378.0,1708758328.371
3279345.0,1708758328.41
3279096.0,1708758328.45
3278915.0,1708758328.491
3279129.0,1708758328.528
3278758.0,1708758328.57
3278682.0,1708758328.61
3278488.0,1708758328.649
3278988.0,1708758328.69
3279329.0,1708758328.731
3279329.0,1708758328.771
3279611.0,1708758328.81
3279800.0,1708758328.85
3280174.0,1708758328.889
3280039.0,1708758328.929
3280967.0,1708758329.01
3280522.0,1708758328.971
3280811.0,1708758329.05
3281901.0,1708758329.13
3281200.0,1708758329.091
3281703.0,1708758329.171
3282474.0,1708758329.21
3282819.0,1708758329.249
3282994.0,1708758329.289
3283398.0,1708758329.371
3283251.0,1708758329.331
3283692.0,1708758329.41
3284401.0,1708758329.491
3284143.0,1708758329.452
3284045.0,1708758329.529
3283651.0,1708758329.571
3283181.0,1708758329.609
3283231.0,1708758329.691
3282710.0,1708758329.65
3283372.0,1708758329.73
3283339.0,1708758329.771
3283282.0,1708758329.812
3283244.0,1708758329.851
3283577.0,1708758329.889
3283808.0,1708758329.93
3283774.0,1708758329.97
3283677.0,1708758330.01
3283489.0,1708758330.051
3284019.0,1708758330.09
3283953.0,1708758330.131
3283854.0,1708758330.173
3284341.0,1708758330.212
3284993.0,1708758330.249
3285182.0,1708758330.29
3284867.0,1708758330.33
3285053.0,1708758330.371
3285404.0,1708758330.411
3284708.0,1708758330.451
3284489.0,1708758330.491
3284660.0,1708758330.57
3284817.0,1708758330.532
3285132.0,1708758330.61
3284348.0,1708758330.65
3284539.0,1708758330.689
3284775.0,1708758330.729
3284966.0,1708758330.772
3284507.0,1708758330.809
3284857.0,1708758330.849
3285034.0,1708758330.891
3285136.0,1708758330.93
3285425.0,1708758330.971
3284882.0,1708758331.011
3285097.0,1708758331.051
3285176.0,1708758331.091
3285695.0,1708758331.132
3285351.0,1708758331.172
3286093.0,1708758331.209
3286774.0,1708758331.251
3286891.0,1708758331.29
3286566.0,1708758331.33
3286926.0,1708758331.372
3286716.0,1708758331.411
3286548.0,1708758331.451
3286540.0,1708758331.492
3286740.0,1708758331.53
3286884.0,1708758331.571
3286856.0,1708758331.611
3287308.0,1708758331.65
3287051.0,1708758331.691
3287621.0,1708758331.732
3287093.0,1708758331.772
3287174.0,1708758331.811
3287545.0,1708758331.853
3287782.0,1708758331.89
3287423.0,1708758331.93
3287765.0,1708758331.972
3287774.0,1708758332.01
3287568.0,1708758332.051
3288296.0,1708758332.092
3288040.0,1708758332.127
3288403.0,1708758332.168
3288633.0,1708758332.208
3288006.0,1708758332.247
3288278.0,1708758332.287
3287859.0,1708758332.328
3287863.0,1708758332.368
3287631.0,1708758332.407
3287717.0,1708758332.449
3287341.0,1708758332.488
3287491.0,1708758332.528
3287722.0,1708758332.569
3287669.0,1708758332.608
3287574.0,1708758332.648
3287409.0,1708758332.689
3287856.0,1708758332.769
3287316.0,1708758332.728
3288565.0,1708758332.81
3288866.0,1708758332.849
3289108.0,1708758332.89
3288808.0,1708758332.931
3288748.0,1708758332.971
3288881.0,1708758333.008
3288396.0,1708758333.049
3288483.0,1708758333.089
3289508.0,1708758333.129
3289285.0,1708758333.171
3289408.0,1708758333.328
3289406.0,1708758333.288
3288997.0,1708758333.369
3289168.0,1708758333.409
3289835.0,1708758333.449
3290043.0,1708758333.247
3289103.0,1708758333.207
3289818.0,1708758333.489
3289755.0,1708758333.53
3289989.0,1708758333.57
3289708.0,1708758333.61
3290012.0,1708758333.651
3289792.0,1708758333.77
3290944.0,1708758333.809
3289540.0,1708758333.73
3290919.0,1708758333.849
3291234.0,1708758333.89
3291075.0,1708758333.929
3290979.0,1708758333.97
3290900.0,1708758334.011
3291283.0,1708758334.05
3291973.0,1708758334.09
3292013.0,1708758334.13
3292043.0,1708758334.17
3291372.0,1708758334.209
3291904.0,1708758334.25
3289810.0,1708758333.69
3291930.0,1708758334.29
3291762.0,1708758334.33
3291776.0,1708758334.372
3291539.0,1708758334.41
3291735.0,1708758334.49
3291780.0,1708758334.449
3291843.0,1708758334.57
3291966.0,1708758334.65
3291512.0,1708758334.69
3291873.0,1708758334.731
3291607.0,1708758334.771
3292515.0,1708758334.809
3291893.0,1708758334.611
3291510.0,1708758334.889
3291602.0,1708758334.85
3291576.0,1708758334.529
3291680.0,1708758334.93
3292571.0,1708758334.972
3292393.0,1708758335.01
3292024.0,1708758335.05
3291474.0,1708758335.092
3291261.0,1708758335.131
3291656.0,1708758335.17
3291765.0,1708758335.21
3291557.0,1708758335.249
3292021.0,1708758335.29
3292650.0,1708758335.331
3292567.0,1708758335.371
3292431.0,1708758335.411
3292604.0,1708758335.452
3292375.0,1708758335.491
3293088.0,1708758335.529
3292586.0,1708758335.571
3292479.0,1708758335.61
3293107.0,1708758335.65
3292878.0,1708758335.691
3293202.0,1708758335.73
3293351.0,1708758335.774
3293228.0,1708758335.814
3293385.0,1708758335.853
3293133.0,1708758335.894
3293051.0,1708758335.933
3293399.0,1708758335.97
3293047.0,1708758336.01
3293035.0,1708758336.051
3292827.0,1708758336.09
3293023.0,1708758336.13
3292607.0,1708758336.172
3292840.0,1708758336.211
3293406.0,1708758336.251
3293217.0,1708758336.292
3293463.0,1708758336.329
3293519.0,1708758336.37
3293357.0,1708758336.411
3294285.0,1708758336.45
3293612.0,1708758336.491
3294181.0,1708758336.532
3294031.0,1708758336.572
3294822.0,1708758336.61
3294621.0,1708758336.652
3294601.0,1708758336.691
3294135.0,1708758336.731
3294237.0,1708758336.773
3293846.0,1708758336.811
3293777.0,1708758336.85
3294180.0,1708758336.891
3294187.0,1708758336.93
3294713.0,1708758336.971
3294569.0,1708758337.012
3294807.0,1708758337.051
3294596.0,1708758337.091
3294043.0,1708758337.132
3294082.0,1708758337.172
3294964.0,1708758337.21
3295270.0,1708758337.251
3295068.0,1708758337.29
3295010.0,1708758337.331
3295028.0,1708758337.373
3295498.0,1708758337.411
3295148.0,1708758337.452
3295584.0,1708758337.493
3295365.0,1708758337.53
3295212.0,1708758337.571
3295293.0,1708758337.612
3295566.0,1708758337.651
3295075.0,1708758337.691
3294986.0,1708758337.732
3295013.0,1708758337.772
3295147.0,1708758337.812
3295475.0,1708758337.853
3295716.0,1708758337.89
3295472.0,1708758337.93
3295910.0,1708758337.972
3296142.0,1708758338.011
3296007.0,1708758338.051
3296047.0,1708758338.092
3296098.0,1708758338.132
3296416.0,1708758338.173
3296570.0,1708758338.213
3296148.0,1708758338.25
3297016.0,1708758338.291
3296978.0,1708758338.332
3296996.0,1708758338.371
3297178.0,1708758338.411
3297464.0,1708758338.452
3298144.0,1708758338.492
3297865.0,1708758338.532
3297429.0,1708758338.574
3297874.0,1708758338.61
3298328.0,1708758338.651
3298269.0,1708758338.692
3297449.0,1708758338.731
3296320.0,1708758338.772
3294290.0,1708758338.813
3293413.0,1708758338.852
3293697.0,1708758338.892
3295000.0,1708758338.934
3296166.0,1708758338.971
3297351.0,1708758339.011
3299066.0,1708758339.052
3301286.0,1708758339.091
3302663.0,1708758339.132
3302683.0,1708758339.174
3302455.0,1708758339.212
3302086.0,1708758339.252
3301953.0,1708758339.294
3301343.0,1708758339.331
3301052.0,1708758339.372
3301540.0,1708758339.413
3301492.0,1708758339.452
3301337.0,1708758339.492
3300423.0,1708758339.533
3299301.0,1708758339.573
3299314.0,1708758339.613
3298005.0,1708758339.652
3297726.0,1708758339.691
3298217.0,1708758339.731
3298237.0,1708758339.773
3298748.0,1708758339.812
3297010.0,1708758339.852
3296171.0,1708758339.894
3296141.0,1708758339.933
3297287.0,1708758339.972
3297382.0,1708758340.012
3297002.0,1708758340.052
3296231.0,1708758340.092
3295890.0,1708758340.133
3295600.0,1708758340.173
3295552.0,1708758340.213
3296261.0,1708758340.254
3296624.0,1708758340.293
3297517.0,1708758340.331
3296797.0,1708758340.373
3295859.0,1708758340.412
3295070.0,1708758340.452
3294768.0,1708758340.493
3294021.0,1708758340.533
3292869.0,1708758340.574
3289889.0,1708758340.614
3286173.0,1708758340.651
3284364.0,1708758340.692
3285922.0,1708758340.733
3287789.0,1708758340.773
3287759.0,1708758340.812
3286119.0,1708758340.854
3286422.0,1708758340.891
3287452.0,1708758340.931
3288003.0,1708758340.973
3289847.0,1708758341.051
3288128.0,1708758341.012
3291363.0,1708758341.093
3292023.0,1708758341.132
3292609.0,1708758341.173
3292787.0,1708758341.213
3293133.0,1708758341.293
3292997.0,1708758341.252
3291127.0,1708758341.334
3289052.0,1708758341.374
3286675.0,1708758341.412
3285186.0,1708758341.453
3284419.0,1708758341.492
3283771.0,1708758341.532
3283269.0,1708758341.574
3282841.0,1708758341.613
3281984.0,1708758341.653
3281487.0,1708758341.694
3280750.0,1708758341.734
3279951.0,1708758341.772
3280128.0,1708758341.813
3280548.0,1708758341.852
3281434.0,1708758341.893
3283981.0,1708758342.013
3283101.0,1708758341.974
3283814.0,1708758342.055
3282470.0,1708758341.934
3283260.0,1708758342.094
3283201.0,1708758342.132
3283081.0,1708758342.174
3283129.0,1708758342.212
3283504.0,1708758342.253
3283975.0,1708758342.294
3283705.0,1708758342.333
3283604.0,1708758342.374
3283438.0,1708758342.415
3282754.0,1708758342.452
3283786.0,1708758342.492
3285636.0,1708758342.534
3287489.0,1708758342.613
3286876.0,1708758342.574
3285821.0,1708758342.654
3284148.0,1708758342.694
3285239.0,1708758342.734
3285723.0,1708758342.774
3285606.0,1708758342.812
3285584.0,1708758342.853
3285007.0,1708758342.894
3284038.0,1708758342.974
3284580.0,1708758342.933
3284325.0,1708758343.015
3284145.0,1708758343.054
3284188.0,1708758343.092
3284375.0,1708758343.134
3284305.0,1708758343.173
3284374.0,1708758343.213
3284023.0,1708758343.254
3283910.0,1708758343.294
3284360.0,1708758343.334
3283834.0,1708758343.376
3284934.0,1708758343.412
3285773.0,1708758343.452
3285884.0,1708758343.494
3285831.0,1708758343.533
3285095.0,1708758343.573
3284742.0,1708758343.614
3285560.0,1708758343.653
3285853.0,1708758343.693
3285830.0,1708758343.734
3285574.0,1708758343.774
3284096.0,1708758343.814
3283087.0,1708758343.855
3282395.0,1708758343.894
3282841.0,1708758343.935
3284071.0,1708758343.974
3285875.0,1708758344.013
3287667.0,1708758344.053
3289893.0,1708758344.094
3291324.0,1708758344.136
3292688.0,1708758344.177
3295261.0,1708758344.218
3298725.0,1708758344.257
3300531.0,1708758344.297
3299851.0,1708758344.338
3295633.0,1708758344.378
3291793.0,1708758344.417
3289822.0,1708758344.458
3288600.0,1708758344.497
3287554.0,1708758344.537
3286909.0,1708758344.579
3286451.0,1708758344.617
3286315.0,1708758344.657
3286418.0,1708758344.699
3286381.0,1708758344.738
3286884.0,1708758344.778
3287426.0,1708758344.819
3287807.0,1708758344.858
3286853.0,1708758344.898
3286035.0,1708758344.939
3286098.0,1708758344.979
3286800.0,1708758345.018
3286831.0,1708758345.059
3286236.0,1708758345.098
3285783.0,1708758345.138
3285846.0,1708758345.18
3285901.0,1708758345.219
3285276.0,1708758345.259
3285143.0,1708758345.3
3284753.0,1708758345.339
3283668.0,1708758345.38
3281271.0,1708758345.42
3279314.0,1708758345.46
3277776.0,1708758345.5
3275814.0,1708758345.541
3275057.0,1708758345.579
3274656.0,1708758345.619
3274051.0,1708758345.66
3273222.0,1708758345.699
3273056.0,1708758345.739
3273622.0,1708758345.781
3274303.0,1708758345.82
3274439.0,1708758345.86
3274975.0,1708758345.901
3275895.0,1708758345.938
3276618.0,1708758345.979
3277382.0,1708758346.019
3277345.0,1708758346.058
3277978.0,1708758346.098
3278088.0,1708758346.14
3278879.0,1708758346.179
3278885.0,1708758346.219
3279967.0,1708758346.26
3280026.0,1708758346.299
3279086.0,1708758346.339
3278856.0,1708758346.381
3279190.0,1708758346.42
3278841.0,1708758346.46
3279699.0,1708758346.502
3280056.0,1708758346.539
3279609.0,1708758346.58
3279546.0,1708758346.62
3280313.0,1708758346.659
3280521.0,1708758346.7
3280499.0,1708758346.741
3280959.0,1708758346.781
3280965.0,1708758346.821
3281475.0,1708758346.86
3282063.0,1708758346.899
3282073.0,1708758346.939
3281364.0,1708758346.981
3280971.0,1708758347.02
3280614.0,1708758347.06
3280159.0,1708758347.101
3280420.0,1708758347.141
3280465.0,1708758347.182
3280417.0,1708758347.22
3281140.0,1708758347.259
3281531.0,1708758347.3
3281368.0,1708758347.341
3280901.0,1708758347.42
3281695.0,1708758347.462
3281031.0,1708758347.381
3281920.0,1708758347.501
3281656.0,1708758347.539
3282381.0,1708758347.581
3283020.0,1708758347.62
3283310.0,1708758347.701
3283126.0,1708758347.74
3283289.0,1708758347.781
3282830.0,1708758347.822
3283473.0,1708758347.66
3282813.0,1708758347.861
3282800.0,1708758347.899
3282730.0,1708758347.941
3282751.0,1708758347.98
3282958.0,1708758348.02
3282630.0,1708758348.061
3282449.0,1708758348.101
3282377.0,1708758348.141
3284741.0,1708758348.259
3283808.0,1708758348.221
3282547.0,1708758348.183
3285077.0,1708758348.301
3286983.0,1708758348.381
3285875.0,1708758348.34
3287768.0,1708758348.422
3288915.0,1708758348.461
3290982.0,1708758348.501
3293475.0,1708758348.582
3292269.0,1708758348.542
3293154.0,1708758348.62
3289184.0,1708758348.7
3291867.0,1708758348.661
3286276.0,1708758348.74
3286757.0,1708758348.821
3285098.0,1708758348.782
3288686.0,1708758348.861
3288689.0,1708758348.902
3286630.0,1708758348.942
3284877.0,1708758348.98
3283366.0,1708758349.021
3280026.0,1708758349.06
3276407.0,1708758349.101
3274424.0,1708758349.142
3274644.0,1708758349.182
3274760.0,1708758349.221
3272672.0,1708758349.263
3272600.0,1708758349.302
3274474.0,1708758349.34
3274709.0,1708758349.382
3275298.0,1708758349.421
3275295.0,1708758349.461
3275251.0,1708758349.502
3275759.0,1708758349.541
3273974.0,1708758349.582
3272807.0,1708758349.623
3272292.0,1708758349.66
3272824.0,1708758349.7
3272464.0,1708758349.742
3272935.0,1708758349.781
3272179.0,1708758349.821
3271979.0,1708758349.862
3272136.0,1708758349.902
3272990.0,1708758349.942
3272124.0,1708758349.982
3272577.0,1708758350.02
3274038.0,1708758350.061
3274901.0,1708758350.102
3275142.0,1708758350.141
3274688.0,1708758350.182
3275470.0,1708758350.223
3276778.0,1708758350.262
3277536.0,1708758350.302
3277062.0,1708758350.341
3277342.0,1708758350.381
3277950.0,1708758350.421
3278397.0,1708758350.462
3277795.0,1708758350.501
3277732.0,1708758350.542
3277843.0,1708758350.584
3277991.0,1708758350.622
3278279.0,1708758350.66
3278402.0,1708758350.702
3279076.0,1708758350.741
3279991.0,1708758350.782
3280407.0,1708758350.822
3280649.0,1708758350.862
3281030.0,1708758350.902
3280610.0,1708758350.943
3281020.0,1708758350.983
3281449.0,1708758351.021
3281325.0,1708758351.062
3282459.0,1708758351.101
3282530.0,1708758351.14
3282789.0,1708758351.182
3282748.0,1708758351.221
3283012.0,1708758351.261
3283408.0,1708758351.302
3284003.0,1708758351.341
3284231.0,1708758351.382
3284308.0,1708758351.423
3284710.0,1708758351.462
3283713.0,1708758351.502
3284474.0,1708758351.543
3284473.0,1708758351.583
3284736.0,1708758351.621
3284824.0,1708758351.662
3284771.0,1708758351.701
3285159.0,1708758351.742
3285640.0,1708758351.784
3285836.0,1708758351.822
3285738.0,1708758351.862
3286089.0,1708758351.904
3286459.0,1708758351.943
3286521.0,1708758351.982
3286964.0,1708758352.022
3286839.0,1708758352.061
3286590.0,1708758352.102
3287125.0,1708758352.143
3287392.0,1708758352.183
3287766.0,1708758352.223
3287703.0,1708758352.264
3288419.0,1708758352.303
3288512.0,1708758352.341
3288532.0,1708758352.383
3287978.0,1708758352.422
3288437.0,1708758352.462
3288362.0,1708758352.503
3288111.0,1708758352.542
3287864.0,1708758352.583
3286322.0,1708758352.624
3285914.0,1708758352.661
3284919.0,1708758352.701
3284530.0,1708758352.743
3284516.0,1708758352.783
3284989.0,1708758352.822
3285650.0,1708758352.863
3286245.0,1708758352.903
3286513.0,1708758352.943
3286939.0,1708758352.983
3287210.0,1708758353.022
3286936.0,1708758353.062
3286949.0,1708758353.103
3286018.0,1708758353.142
3285003.0,1708758353.183
3285854.0,1708758353.224
3286183.0,1708758353.263
3283468.0,1708758353.303
3282081.0,1708758353.343
3283167.0,1708758353.382
3282617.0,1708758353.422
3280007.0,1708758353.463
3277660.0,1708758353.503
3277541.0,1708758353.543
3277617.0,1708758353.585
3279091.0,1708758353.623
3280350.0,1708758353.662
3280623.0,1708758353.702
3281026.0,1708758353.741
3281971.0,1708758353.781
3283195.0,1708758353.823
3284123.0,1708758353.862
3284223.0,1708758353.902
3284963.0,1708758353.943
3285652.0,1708758353.983
3286410.0,1708758354.022
3287223.0,1708758354.064
3289284.0,1708758354.103
3291054.0,1708758354.143
3291963.0,1708758354.185
3292908.0,1708758354.224
3293139.0,1708758354.264
3293441.0,1708758354.303
3294508.0,1708758354.342
3295908.0,1708758354.383
3297367.0,1708758354.424
3299249.0,1708758354.463
3300869.0,1708758354.503
3301285.0,1708758354.545
3302104.0,1708758354.585
3303627.0,1708758354.622
3305545.0,1708758354.663
3307251.0,1708758354.702
3306918.0,1708758354.743
3306413.0,1708758354.785
3306772.0,1708758354.823
3306652.0,1708758354.863
3306793.0,1708758354.905
3306812.0,1708758354.944
3306478.0,1708758354.983
3306318.0,1708758355.023
3306382.0,1708758355.063
3304791.0,1708758355.103
3304314.0,1708758355.144
3304076.0,1708758355.184
3304299.0,1708758355.224
3304632.0,1708758355.266
3304429.0,1708758355.304
3303944.0,1708758355.342
3303794.0,1708758355.384
3303771.0,1708758355.423
3304472.0,1708758355.463
3304943.0,1708758355.505
3305510.0,1708758355.544
3304749.0,1708758355.585
3305457.0,1708758355.625
3305190.0,1708758355.662
3304687.0,1708758355.703
3304646.0,1708758355.744
3304899.0,1708758355.784
3304808.0,1708758355.824
3304511.0,1708758355.865
3305244.0,1708758355.904
3305472.0,1708758355.944
3305912.0,1708758355.984
3305728.0,1708758356.023
3305657.0,1708758356.063
3306009.0,1708758356.104
3306499.0,1708758356.137
3306783.0,1708758356.178
3306950.0,1708758356.219
3307529.0,1708758356.258
3307518.0,1708758356.298
3307092.0,1708758356.339
3307339.0,1708758356.379
3308221.0,1708758356.418
3308361.0,1708758356.459
3308166.0,1708758356.498
3307688.0,1708758356.538
3307857.0,1708758356.58
3308535.0,1708758356.618
3308252.0,1708758356.659
3308734.0,1708758356.7
3309093.0,1708758356.739
3308873.0,1708758356.779
3309191.0,1708758356.818
3309891.0,1708758356.857
3310569.0,1708758356.897
3310016.0,1708758356.939
3308990.0,1708758356.979
3309279.0,1708758357.018
3309751.0,1708758357.059
3310349.0,1708758357.099
3310055.0,1708758357.137
3310056.0,1708758357.179
3309786.0,1708758357.218
3310443.0,1708758357.258
3310616.0,1708758357.299
3310361.0,1708758357.338
3310467.0,1708758357.379
3311355.0,1708758357.42
3310588.0,1708758357.457
3310285.0,1708758357.497
3310967.0,1708758357.539
3310625.0,1708758357.579
3309982.0,1708758357.618
3309964.0,1708758357.659
3310595.0,1708758357.699
3311006.0,1708758357.739
3310403.0,1708758357.781
3310652.0,1708758357.817
3310301.0,1708758357.858
3310759.0,1708758357.899
3310552.0,1708758357.938
3310483.0,1708758357.979
3310715.0,1708758358.02
3311277.0,1708758358.059
3310981.0,1708758358.099
3310807.0,1708758358.138
3310211.0,1708758358.178
3310450.0,1708758358.218
3310718.0,1708758358.259
3311355.0,1708758358.298
3311021.0,1708758358.339
3311034.0,1708758358.381
3310854.0,1708758358.419
3311238.0,1708758358.458
3311216.0,1708758358.499
3311012.0,1708758358.538
3311117.0,1708758358.579
3311229.0,1708758358.62
3311250.0,1708758358.659
3311056.0,1708758358.699
3311323.0,1708758358.74
3311086.0,1708758358.78
3311439.0,1708758358.817
3311702.0,1708758358.858
3311807.0,1708758358.897
3311450.0,1708758358.938
3311496.0,1708758358.979
3311489.0,1708758359.018
3311871.0,1708758359.058
3311170.0,1708758359.099
3311431.0,1708758359.138
3311290.0,1708758359.179
3312103.0,1708758359.22
3311774.0,1708758359.259
3312046.0,1708758359.3
3312432.0,1708758359.341
3312370.0,1708758359.379
3311776.0,1708758359.418
3312097.0,1708758359.46
3312839.0,1708758359.499
3313023.0,1708758359.539
3313348.0,1708758359.581
3313218.0,1708758359.62
3313233.0,1708758359.66
3313395.0,1708758359.699
3312999.0,1708758359.738
3312835.0,1708758359.779
3312943.0,1708758359.82
3313327.0,1708758359.859
3314239.0,1708758359.899
3314082.0,1708758359.941
3313976.0,1708758359.981
3313684.0,1708758360.02
3313668.0,1708758360.059
3313800.0,1708758360.098
3313996.0,1708758360.139
3314353.0,1708758360.181
3314052.0,1708758360.219
3314342.0,1708758360.26
3313832.0,1708758360.301
3313959.0,1708758360.34
3313715.0,1708758360.381
3314148.0,1708758360.419
3315042.0,1708758360.459
3315019.0,1708758360.499
3314568.0,1708758360.54
3314974.0,1708758360.58
3315005.0,1708758360.62
3314466.0,1708758360.661
3314291.0,1708758360.7
3315130.0,1708758360.74
3315482.0,1708758360.78
3314706.0,1708758360.819
3315285.0,1708758360.859
3315218.0,1708758360.9
3315133.0,1708758360.94
3315532.0,1708758361.021
3315526.0,1708758360.981
3315305.0,1708758361.06
3315577.0,1708758361.1
3315250.0,1708758361.142
3315239.0,1708758361.179
3315774.0,1708758361.219
3315010.0,1708758361.26
3315339.0,1708758361.299
3315828.0,1708758361.34
3316004.0,1708758361.379
3315933.0,1708758361.419
3315622.0,1708758361.459
3316125.0,1708758361.5
3316033.0,1708758361.539
3316033.0,1708758361.58
3316070.0,1708758361.621
3316494.0,1708758361.66
3316420.0,1708758361.7
3316811.0,1708758361.741
3316584.0,1708758361.781
3315753.0,1708758361.819
3316421.0,1708758361.86
3316089.0,1708758361.899
3316019.0,1708758361.94
3315990.0,1708758361.982
3316288.0,1708758362.02
3316435.0,1708758362.06
3316481.0,1708758362.102
3316162.0,1708758362.141
3315895.0,1708758362.18
3316685.0,1708758362.22
3316418.0,1708758362.259
3316021.0,1708758362.3
3316527.0,1708758362.341
3316596.0,1708758362.381
3316056.0,1708758362.421
3315914.0,1708758362.462
3315786.0,1708758362.501
3316846.0,1708758362.539
3316783.0,1708758362.581
3316739.0,1708758362.62
3317147.0,1708758362.66
3316777.0,1708758362.701
3316281.0,1708758362.74
3316376.0,1708758362.781
3316523.0,1708758362.822
3316013.0,1708758362.861
3316038.0,1708758362.899
3315769.0,1708758362.941
3315910.0,1708758362.98
3315595.0,1708758363.02
3315372.0,1708758363.061
3315326.0,1708758363.101
3315585.0,1708758363.141
3315453.0,1708758363.183
3315829.0,1708758363.221
3315576.0,1708758363.259
3315643.0,1708758363.301
3315401.0,1708758363.34
3315454.0,1708758363.381
3315853.0,1708758363.422
3315813.0,1708758363.461
3316160.0,1708758363.501
3315840.0,1708758363.542
3315303.0,1708758363.58
3315338.0,1708758363.62
3315311.0,1708758363.661
3315472.0,1708758363.7
3315200.0,1708758363.741
3315615.0,1708758363.783
3315546.0,1708758363.821
3315557.0,1708758363.861
3315523.0,1708758363.903
3315622.0,1708758363.942
3315840.0,1708758363.982
3315777.0,1708758364.023
3315919.0,1708758364.06
3315765.0,1708758364.1
3315743.0,1708758364.141
3315430.0,1708758364.181
3315473.0,1708758364.221
3315728.0,1708758364.262
3315341.0,1708758364.301
3315545.0,1708758364.342
3315346.0,1708758364.383
3315650.0,1708758364.42
3315866.0,1708758364.46
3315986.0,1708758364.502
3316069.0,1708758364.541
3315826.0,1708758364.582
3315855.0,1708758364.622
3316257.0,1708758364.661
3316690.0,1708758364.702
3316987.0,1708758364.743
3317421.0,1708758364.781
3317301.0,1708758364.82
3317845.0,1708758364.862
3317804.0,1708758364.901
3317906.0,1708758364.941
3318517.0,1708758364.983
3317829.0,1708758365.022
3318142.0,1708758365.062
3318843.0,1708758365.103
3318224.0,1708758365.14
3318226.0,1708758365.181
3318496.0,1708758365.222
3318522.0,1708758365.261
3319353.0,1708758365.301
3319197.0,1708758365.342
3319359.0,1708758365.382
3319733.0,1708758365.422
3319596.0,1708758365.463
3319783.0,1708758365.5
3320218.0,1708758365.541
3320190.0,1708758365.583
3319930.0,1708758365.621
3320358.0,1708758365.661
3320336.0,1708758365.703
3320425.0,1708758365.742
3320206.0,1708758365.783
3320286.0,1708758365.823
3320834.0,1708758365.863
3321103.0,1708758365.901
3321264.0,1708758365.942
3321592.0,1708758365.982
3321540.0,1708758366.021
3321697.0,1708758366.062
3320581.0,1708758366.101
3320668.0,1708758366.141
3320622.0,1708758366.183
3320162.0,1708758366.222
3321000.0,1708758366.262
3321150.0,1708758366.303
3320965.0,1708758366.342
3321057.0,1708758366.383
3320932.0,1708758366.422
3321127.0,1708758366.461
3320947.0,1708758366.501
3320744.0,1708758366.542
3320753.0,1708758366.582
3321088.0,1708758366.621
3321336.0,1708758366.663
3321157.0,1708758366.702
3321184.0,1708758366.742
3321590.0,1708758366.784
3321269.0,1708758366.823
3321125.0,1708758366.863
3321165.0,1708758366.902
3320844.0,1708758366.941
3321128.0,1708758366.982
3321004.0,1708758367.023
3321403.0,1708758367.062
3321711.0,1708758367.102
3321619.0,1708758367.144
3321783.0,1708758367.183
3321290.0,1708758367.223
3321108.0,1708758367.262
3321052.0,1708758367.301
3320911.0,1708758367.342
3321320.0,1708758367.384
3321082.0,1708758367.422
3321274.0,1708758367.463
3321286.0,1708758367.504
3320778.0,1708758367.543
3320684.0,1708758367.582
3320837.0,1708758367.622
3320919.0,1708758367.662
3320989.0,1708758367.702
3320433.0,1708758367.743
3320492.0,1708758367.783
3320240.0,1708758367.822
3320072.0,1708758367.863
3320293.0,1708758367.902
3320291.0,1708758367.943
3320128.0,1708758367.984
3319811.0,1708758368.023
3319660.0,1708758368.063
3319635.0,1708758368.104
3320114.0,1708758368.15
3319627.0,1708758368.191
3319560.0,1708758368.232
3319284.0,1708758368.271
3319135.0,1708758368.311
3318884.0,1708758368.352
3318188.0,1708758368.392
3317928.0,1708758368.431
3318276.0,1708758368.472
3317936.0,1708758368.511
3318265.0,1708758368.551
3318461.0,1708758368.593
3318029.0,1708758368.631
3318451.0,1708758368.672
3318756.0,1708758368.713
3318602.0,1708758368.749
3318459.0,1708758368.79
3318194.0,1708758368.83
3319105.0,1708758368.869
3318843.0,1708758368.91
3319170.0,1708758368.951
3319000.0,1708758368.991
3319211.0,1708758369.031
3319975.0,1708758369.069
3319656.0,1708758369.108
3319908.0,1708758369.148
3319806.0,1708758369.19
3319661.0,1708758369.228
3319759.0,1708758369.269
3319990.0,1708758369.311
3320241.0,1708758369.349
3319777.0,1708758369.39
3320048.0,1708758369.431
3320143.0,1708758369.47
3320305.0,1708758369.51
3320574.0,1708758369.551
3320641.0,1708758369.591
3320524.0,1708758369.631
3320811.0,1708758369.672
3321130.0,1708758369.709
3321071.0,1708758369.749
3321210.0,1708758369.791
3321604.0,1708758369.83
3321397.0,1708758369.87
3321091.0,1708758369.911
3321507.0,1708758369.951
3321226.0,1708758369.992
3321178.0,1708758370.032
3322074.0,1708758370.069
3322097.0,1708758370.11
3321892.0,1708758370.151
3321902.0,1708758370.191
3321592.0,1708758370.23
3321947.0,1708758370.272
3321744.0,1708758370.311
3321929.0,1708758370.351
3322099.0,1708758370.393
3322575.0,1708758370.429
3322073.0,1708758370.47
3322300.0,1708758370.511
3322602.0,1708758370.55
3322973.0,1708758370.591
3322854.0,1708758370.632
3322575.0,1708758370.671
3322612.0,1708758370.711
3323013.0,1708758370.752
3323265.0,1708758370.79
3323132.0,1708758370.83
3323173.0,1708758370.871
3323572.0,1708758370.91
3323273.0,1708758370.951
3323136.0,1708758370.993
3323611.0,1708758371.031
3323682.0,1708758371.071
3324255.0,1708758371.113
3323554.0,1708758371.15
3323800.0,1708758371.191
3323812.0,1708758371.231
3323389.0,1708758371.27
3323221.0,1708758371.311
3322955.0,1708758371.352
3323546.0,1708758371.392
3323202.0,1708758371.432
3323309.0,1708758371.473
3323342.0,1708758371.51
3323473.0,1708758371.55
3323325.0,1708758371.592
3323375.0,1708758371.63
3323732.0,1708758371.671
3323649.0,1708758371.712
3324290.0,1708758371.751
3324774.0,1708758371.792
3324679.0,1708758371.833
3324499.0,1708758371.872
3324543.0,1708758371.91
3324975.0,1708758371.951
3324513.0,1708758371.991
3324181.0,1708758372.031
3324902.0,1708758372.072
3324700.0,1708758372.111
3325220.0,1708758372.152
3325084.0,1708758372.194
3325029.0,1708758372.232
3325550.0,1708758372.27
3325494.0,1708758372.311
3325532.0,1708758372.351
3325566.0,1708758372.392
3325480.0,1708758372.432
3325911.0,1708758372.472
3325810.0,1708758372.512
3326080.0,1708758372.553
3325747.0,1708758372.591
3326085.0,1708758372.631
3326564.0,1708758372.672
3326238.0,1708758372.711
3325601.0,1708758372.751
3325980.0,1708758372.793
3326234.0,1708758372.832
3326297.0,1708758372.872
3326833.0,1708758372.913
3327408.0,1708758372.95
3327222.0,1708758372.991
3327015.0,1708758373.032
3326956.0,1708758373.071
3326785.0,1708758373.111
3327176.0,1708758373.153
3326953.0,1708758373.193
3327358.0,1708758373.232
3326987.0,1708758373.273
3327125.0,1708758373.311
3327230.0,1708758373.351
3327294.0,1708758373.393
3327168.0,1708758373.431
3326838.0,1708758373.472
3327331.0,1708758373.513
3327306.0,1708758373.552
3327333.0,1708758373.593
3327052.0,1708758373.634
3327322.0,1708758373.671
3328094.0,1708758373.711
3327551.0,1708758373.752
3327294.0,1708758373.792
3327776.0,1708758373.831
3327730.0,1708758373.872
3327832.0,1708758373.911
3328260.0,1708758373.952
3328425.0,1708758373.993
3328290.0,1708758374.032
3328366.0,1708758374.072
3328619.0,1708758374.113
3328015.0,1708758374.153
3328464.0,1708758374.191
3328188.0,1708758374.232
3328500.0,1708758374.271
3328104.0,1708758374.311
3328688.0,1708758374.352
3328779.0,1708758374.392
3329008.0,1708758374.432
3328840.0,1708758374.473
3328944.0,1708758374.512
3329341.0,1708758374.553
3329572.0,1708758374.594
3329269.0,1708758374.633
3328833.0,1708758374.671
3328922.0,1708758374.712
3329002.0,1708758374.752
3329652.0,1708758374.793
3329764.0,1708758374.833
3329611.0,1708758374.872
3329519.0,1708758374.913
3329913.0,1708758374.954
3329775.0,1708758374.994
3329509.0,1708758375.032
3329931.0,1708758375.074
3329539.0,1708758375.113
3329819.0,1708758375.153
3329819.0,1708758375.195
3330052.0,1708758375.231
3330290.0,1708758375.272
3329493.0,1708758375.313
3330350.0,1708758375.352
3330310.0,1708758375.393
3330100.0,1708758375.434
3330333.0,1708758375.473
3329970.0,1708758375.513
3330815.0,1708758375.553
3330367.0,1708758375.592
3330349.0,1708758375.632
3330823.0,1708758375.673
3330727.0,1708758375.713
3330517.0,1708758375.753
3331314.0,1708758375.795
3330856.0,1708758375.833
3331481.0,1708758375.874
3330878.0,1708758375.913
3330892.0,1708758375.952
3331293.0,1708758375.993
3331887.0,1708758376.033
3331484.0,1708758376.073
3331310.0,1708758376.113
3331535.0,1708758376.154
3331406.0,1708758376.194
3331010.0,1708758376.234
3331373.0,1708758376.273
3331511.0,1708758376.312
3331457.0,1708758376.352
3331282.0,1708758376.394
3331191.0,1708758376.433
3331674.0,1708758376.473
3332239.0,1708758376.515
3331888.0,1708758376.554
3331894.0,1708758376.593
3332193.0,1708758376.633
3332239.0,1708758376.672
3331823.0,1708758376.713
3332036.0,1708758376.754
3332183.0,1708758376.793
3331991.0,1708758376.833
3332283.0,1708758376.874
3332170.0,1708758376.913
3331914.0,1708758376.954
3332046.0,1708758376.996
3332295.0,1708758377.032
3332069.0,1708758377.072
3332220.0,1708758377.114
3332482.0,1708758377.153
3333050.0,1708758377.194
3332565.0,1708758377.234
3332716.0,1708758377.274
3333334.0,1708758377.314
3332957.0,1708758377.355
3333188.0,1708758377.393
3333061.0,1708758377.433
3333414.0,1708758377.474
3333666.0,1708758377.513
3333354.0,1708758377.553
3333253.0,1708758377.595
3333136.0,1708758377.634
3333288.0,1708758377.674
3333390.0,1708758377.715
3333575.0,1708758377.752
3333529.0,1708758377.793
3333706.0,1708758377.834
3333528.0,1708758377.873
3333721.0,1708758377.913
3333444.0,1708758377.955
3333680.0,1708758377.995
3333739.0,1708758378.034
3333562.0,1708758378.075
3333950.0,1708758378.113
3334084.0,1708758378.153
3334392.0,1708758378.195
3333865.0,1708758378.233
3334403.0,1708758378.274
3334705.0,1708758378.315
3334968.0,1708758378.354
3334411.0,1708758378.395
3334638.0,1708758378.434
3334818.0,1708758378.473
3335274.0,1708758378.513
3334851.0,1708758378.554
3334957.0,1708758378.594
3335219.0,1708758378.634
3335450.0,1708758378.675
3335161.0,1708758378.714
3335061.0,1708758378.755
3335183.0,1708758378.795
3335581.0,1708758378.833
3334901.0,1708758378.873
3335881.0,1708758378.915
3335212.0,1708758378.954
3335451.0,1708758378.995
3335798.0,1708758379.035
3336144.0,1708758379.075
3335989.0,1708758379.115
3336105.0,1708758379.154
3335743.0,1708758379.194
3336256.0,1708758379.233
3336188.0,1708758379.275
3336627.0,1708758379.314
3336260.0,1708758379.354
3336218.0,1708758379.395
3336526.0,1708758379.434
3336302.0,1708758379.474
3336082.0,1708758379.516
3336569.0,1708758379.555
3336591.0,1708758379.594
3337178.0,1708758379.634
3336732.0,1708758379.674
3336858.0,1708758379.714
3336654.0,1708758379.755
3337353.0,1708758379.795
3336917.0,1708758379.835
3337227.0,1708758379.876
3337422.0,1708758379.915
3337286.0,1708758379.953
3336992.0,1708758379.995
3337675.0,1708758380.034
3337298.0,1708758380.074
3337749.0,1708758380.115
3337330.0,1708758380.136
3337642.0,1708758380.177
3337683.0,1708758380.217
3338312.0,1708758380.257
3338335.0,1708758380.297
3338407.0,1708758380.338
3338276.0,1708758380.377
3338164.0,1708758380.417
3337804.0,1708758380.458
3337959.0,1708758380.497
3338392.0,1708758380.579
3338204.0,1708758380.618
3338341.0,1708758380.537
3338633.0,1708758380.658
3338447.0,1708758380.699
3338134.0,1708758380.738
3338211.0,1708758380.779
3338288.0,1708758380.819
3338384.0,1708758380.859
3338497.0,1708758380.899
3338405.0,1708758380.94
3338568.0,1708758380.98
3338234.0,1708758381.018
3337927.0,1708758381.098
3338353.0,1708758381.059
3338747.0,1708758381.18
3338710.0,1708758381.139
3338560.0,1708758381.219
3338548.0,1708758381.259
3338956.0,1708758381.3
3338756.0,1708758381.34
3339088.0,1708758381.379
3338705.0,1708758381.419
3339255.0,1708758381.499
3339121.0,1708758381.458
3339129.0,1708758381.54
3339133.0,1708758381.58
3339676.0,1708758381.62
3339336.0,1708758381.661
3339203.0,1708758381.7
3339286.0,1708758381.738
3339623.0,1708758381.78
3339818.0,1708758381.818
3339535.0,1708758381.858
3339526.0,1708758381.9
3339513.0,1708758381.939
3339031.0,1708758381.98
3339499.0,1708758382.02
3339600.0,1708758382.06
3339778.0,1708758382.1
3339330.0,1708758382.141
3339323.0,1708758382.179
3339849.0,1708758382.218
3339973.0,1708758382.26
3339884.0,1708758382.299
3340486.0,1708758382.339
3340180.0,1708758382.381
3340241.0,1708758382.42
3340334.0,1708758382.46
3340182.0,1708758382.501
3340271.0,1708758382.538
3340497.0,1708758382.579
3340487.0,1708758382.62
3340349.0,1708758382.659
3340289.0,1708758382.699
3341042.0,1708758382.741
3340280.0,1708758382.781
3340576.0,1708758382.82
3340510.0,1708758382.861
3340855.0,1708758382.899
3341019.0,1708758382.939
3340718.0,1708758382.981
3341214.0,1708758383.019
3340685.0,1708758383.059
3341301.0,1708758383.101
3340853.0,1708758383.14
3340987.0,1708758383.181
3341484.0,1708758383.221
3341091.0,1708758383.259
3340838.0,1708758383.299
3340891.0,1708758383.34
3341378.0,1708758383.38
3341608.0,1708758383.42
3341041.0,1708758383.461
3341791.0,1708758383.5
3341260.0,1708758383.541
3341030.0,1708758383.581
3341425.0,1708758383.619
3341398.0,1708758383.659
3341696.0,1708758383.701
3341226.0,1708758383.74
3341521.0,1708758383.781
3341586.0,1708758383.821
3342128.0,1708758383.86
3341950.0,1708758383.901
3341406.0,1708758383.94
3342125.0,1708758383.98
3342122.0,1708758384.02
3342272.0,1708758384.06
3341698.0,1708758384.099
3342040.0,1708758384.139
3342067.0,1708758384.181
3341922.0,1708758384.22
3341663.0,1708758384.26
3341984.0,1708758384.301
3342024.0,1708758384.341
3341991.0,1708758384.379
3341827.0,1708758384.419
3342030.0,1708758384.459
3342555.0,1708758384.499
3341967.0,1708758384.54
3342158.0,1708758384.58
3342444.0,1708758384.62
3342186.0,1708758384.661
3341817.0,1708758384.74
3342096.0,1708758384.7
3342913.0,1708758384.821
3342350.0,1708758384.782
3342230.0,1708758384.861
3342239.0,1708758384.9
3342379.0,1708758384.94
3342767.0,1708758384.981
3342357.0,1708758385.021
3342482.0,1708758385.06
3342474.0,1708758385.101
3343036.0,1708758385.182
3342840.0,1708758385.142
3342972.0,1708758385.262
3342968.0,1708758385.3
3342900.0,1708758385.221
3343435.0,1708758385.34
3343325.0,1708758385.382
3342933.0,1708758385.421
3343523.0,1708758385.461
3343044.0,1708758385.502
3342831.0,1708758385.541
3343056.0,1708758385.58
3342317.0,1708758385.621
3342684.0,1708758385.66
3342795.0,1708758385.7
3342544.0,1708758385.742
3342578.0,1708758385.782
3342348.0,1708758385.861
3342452.0,1708758385.82
3342500.0,1708758385.901
3342078.0,1708758385.941
3342708.0,1708758385.983
3342937.0,1708758386.021
3343483.0,1708758386.062
3342892.0,1708758386.103
3343385.0,1708758386.181
3343663.0,1708758386.301
3343749.0,1708758386.342
3343684.0,1708758386.221
3342830.0,1708758386.14
3343766.0,1708758386.26
3343847.0,1708758386.382
3343760.0,1708758386.422
3343909.0,1708758386.463
3344002.0,1708758386.5
3344029.0,1708758386.54
3344056.0,1708758386.582
3344298.0,1708758386.621
3344017.0,1708758386.661
3344264.0,1708758386.702
3344235.0,1708758386.741
3344431.0,1708758386.782
3344298.0,1708758386.823
3344154.0,1708758386.86
3344377.0,1708758386.9
3344661.0,1708758386.942
3344260.0,1708758386.981
3344359.0,1708758387.021
3345024.0,1708758387.101
3344621.0,1708758387.142
3345073.0,1708758387.184
3344623.0,1708758387.062
3345130.0,1708758387.222
3344461.0,1708758387.26
3344265.0,1708758387.302
3344290.0,1708758387.341
3344153.0,1708758387.382
3344748.0,1708758387.423
3344213.0,1708758387.502
3344252.0,1708758387.543
3344396.0,1708758387.581
3344051.0,1708758387.621
3344297.0,1708758387.462
3343855.0,1708758387.701
3344204.0,1708758387.783
3344670.0,1708758387.662
3344134.0,1708758387.741
3344419.0,1708758387.822
3344387.0,1708758387.862
3344055.0,1708758387.903
3344524.0,1708758387.941
3344846.0,1708758387.982
3345168.0,1708758388.022
3344668.0,1708758388.061
3344803.0,1708758388.102
3344875.0,1708758388.143
3345058.0,1708758388.183
3345005.0,1708758388.264
3345275.0,1708758388.301
3345663.0,1708758388.222
3344773.0,1708758388.341
3345252.0,1708758388.383
3345288.0,1708758388.422
3345632.0,1708758388.462
3345773.0,1708758388.503
3345556.0,1708758388.542
3345374.0,1708758388.583
3345588.0,1708758388.624
3346106.0,1708758388.661
3345911.0,1708758388.742
3345576.0,1708758388.701
3345342.0,1708758388.782
3345749.0,1708758388.821
3345778.0,1708758388.862
3345980.0,1708758388.942
3345818.0,1708758388.901
3346003.0,1708758389.022
3346233.0,1708758389.104
3346105.0,1708758389.062
3345597.0,1708758389.143
3345682.0,1708758389.184
3345623.0,1708758389.222
3346112.0,1708758389.261
3346160.0,1708758389.302
3346444.0,1708758389.343
3345934.0,1708758388.984
3346081.0,1708758389.383
3345754.0,1708758389.423
3345686.0,1708758389.464
3346192.0,1708758389.503
3346050.0,1708758389.543
3346091.0,1708758389.583
3346122.0,1708758389.621
3345668.0,1708758389.662
3345890.0,1708758389.703
3345709.0,1708758389.742
3345470.0,1708758389.783
3346001.0,1708758389.824
3345935.0,1708758389.863
3346128.0,1708758389.903
3345980.0,1708758389.942
3345856.0,1708758389.982
3345582.0,1708758390.022
3345908.0,1708758390.062
3346324.0,1708758390.102
3346284.0,1708758390.142
3346434.0,1708758390.184
3346430.0,1708758390.222
3346541.0,1708758390.263
3346701.0,1708758390.304
3346959.0,1708758390.343
3346842.0,1708758390.384
3346859.0,1708758390.423
3346361.0,1708758390.462
3347300.0,1708758390.502
3347340.0,1708758390.543
3346898.0,1708758390.583
3347212.0,1708758390.623
3346983.0,1708758390.664
3346998.0,1708758390.703
3346658.0,1708758390.744
3346894.0,1708758390.784
3346849.0,1708758390.822
3346564.0,1708758390.862
3347194.0,1708758390.904
3347008.0,1708758390.943
3347615.0,1708758390.984
3346967.0,1708758391.024
3346874.0,1708758391.063
3346925.0,1708758391.104
3347046.0,1708758391.143
3347279.0,1708758391.183
3346990.0,1708758391.222
3347196.0,1708758391.264
3347398.0,1708758391.303
3347216.0,1708758391.343
3347196.0,1708758391.385
3347410.0,1708758391.424
3347323.0,1708758391.464
3347555.0,1708758391.503
3347549.0,1708758391.542
3347216.0,1708758391.583
3347583.0,1708758391.624
3347363.0,1708758391.663
3347135.0,1708758391.703
3347166.0,1708758391.745
3347032.0,1708758391.784
3347133.0,1708758391.824
3346883.0,1708758391.863
3347052.0,1708758391.902
3347543.0,1708758391.943
3347948.0,1708758391.985
3347657.0,1708758392.023
3347809.0,1708758392.063
3347980.0,1708758392.102
3348250.0,1708758392.141
3348209.0,1708758392.18
3348300.0,1708758392.219
3348601.0,1708758392.258
3347986.0,1708758392.297
3348465.0,1708758392.336
3348434.0,1708758392.375
3348500.0,1708758392.414
3348559.0,1708758392.453
3348918.0,1708758392.492
3348858.0,1708758392.531
3348669.0,1708758392.57
3348753.0,1708758392.609
3348982.0,1708758392.648
3348658.0,1708758392.687
3348306.0,1708758392.726
3348442.0,1708758392.765
3348783.0,1708758392.804
3348468.0,1708758392.843
3348495.0,1708758392.882
3348875.0,1708758392.921
3349051.0,1708758392.96
3348853.0,1708758392.999
3348467.0,1708758393.038
3348668.0,1708758393.077
3348828.0,1708758393.116
3348895.0,1708758393.155
3348654.0,1708758393.194
3348557.0,1708758393.233
3348396.0,1708758393.272
3348357.0,1708758393.311
3347932.0,1708758393.35
3348398.0,1708758393.389
3348325.0,1708758393.428
3349267.0,1708758393.467
3348968.0,1708758393.507
3349073.0,1708758393.547
3349465.0,1708758393.587
3350227.0,1708758393.627
3349619.0,1708758393.667
3349397.0,1708758393.707
3349805.0,1708758393.747
3349914.0,1708758393.787
3349636.0,1708758393.827
3350148.0,1708758393.867
3350123.0,1708758393.907
3350129.0,1708758393.947
3349984.0,1708758393.987
3349779.0,1708758394.027
3349620.0,1708758394.067
3349548.0,1708758394.107
3349471.0,1708758394.147
3349910.0,1708758394.187
3349468.0,1708758394.227
3349676.0,1708758394.267
3349637.0,1708758394.307
3349263.0,1708758394.347
3350026.0,1708758394.387
3350120.0,1708758394.427
3349746.0,1708758394.467
3349417.0,1708758394.507
3349947.0,1708758394.547
3349893.0,1708758394.587
3349443.0,1708758394.627
3350219.0,1708758394.667
3350002.0,1708758394.707
3349473.0,1708758394.747
3349832.0,1708758394.787
3350021.0,1708758394.827
3350191.0,1708758394.867
3349989.0,1708758394.907
3350386.0,1708758394.947
3350118.0,1708758394.987
3350545.0,1708758395.027
3350488.0,1708758395.067
3350499.0,1708758395.107
3350977.0,1708758395.147
3351036.0,1708758395.187
3350927.0,1708758395.227
3350720.0,1708758395.267
3350901.0,1708758395.307
3350871.0,1708758395.347
3350914.0,1708758395.387
3350990.0,1708758395.427
3350745.0,1708758395.467
