bvp,time
-3.6,1637401885.453125
-3.51,1637401885.46875
-3.41,1637401885.484375
-3.24,1637401885.5
-3.02,1637401885.515625
-2.88,1637401885.53125
-2.99,1637401885.546875
-3.45,1637401885.5625
-4.31,1637401885.578125
-5.55,1637401885.59375
-7.12,1637401885.609375
-8.88,1637401885.625
-10.7,1637401885.640625
-12.43,1637401885.65625
-13.96,1637401885.671875
-15.22,1637401885.6875
-16.28,1637401885.703125
-17.18,1637401885.71875
-17.95,1637401885.734375
-18.44,1637401885.75
-18.4,1637401885.765625
-17.59,1637401885.78125
-15.9,1637401885.796875
-13.44,1637401885.8125
-10.5,1637401885.828125
-7.45,1637401885.84375
-4.6,1637401885.859375
-2.17,1637401885.875
-0.34,1637401885.890625
0.75,1637401885.90625
1.02,1637401885.921875
0.5,1637401885.9375
-0.57,1637401885.953125
-1.82,1637401885.96875
-2.93,1637401885.984375
-3.79,1637401886.0
-4.52,1637401886.015625
-5.42,1637401886.03125
-6.75,1637401886.046875
-8.58,1637401886.0625
-10.75,1637401886.078125
-12.96,1637401886.09375
-14.9,1637401886.109375
-16.33,1637401886.125
-17.18,1637401886.140625
-17.57,1637401886.15625
-17.81,1637401886.171875
-18.28,1637401886.1875
-19.31,1637401886.203125
-20.99,1637401886.21875
-23.0,1637401886.234375
-24.75,1637401886.25
-25.63,1637401886.265625
-25.35,1637401886.28125
-24.2,1637401886.296875
-22.95,1637401886.3125
-22.44,1637401886.328125
-23.03,1637401886.34375
-24.31,1637401886.359375
-25.17,1637401886.375
-24.35,1637401886.390625
-21.11,1637401886.40625
-15.62,1637401886.421875
-8.86,1637401886.4375
-2.09,1637401886.453125
3.91,1637401886.46875
9.32,1637401886.484375
15.1,1637401886.5
22.37,1637401886.515625
31.74,1637401886.53125
42.97,1637401886.546875
55.22,1637401886.5625
67.62,1637401886.578125
79.54,1637401886.59375
90.6,1637401886.609375
100.38,1637401886.625
108.24,1637401886.640625
113.5,1637401886.65625
116.03,1637401886.671875
116.56,1637401886.6875
116.66,1637401886.703125
118.11,1637401886.71875
121.94,1637401886.734375
127.63,1637401886.75
132.77,1637401886.765625
133.75,1637401886.78125
127.46,1637401886.796875
113.3,1637401886.8125
94.16,1637401886.828125
75.83,1637401886.84375
64.27,1637401886.859375
62.15,1637401886.875
66.56,1637401886.890625
69.59,1637401886.90625
62.15,1637401886.921875
38.88,1637401886.9375
1.57,1637401886.953125
-41.34,1637401886.96875
-78.69,1637401886.984375
-102.18,1637401887.0
-109.91,1637401887.015625
-106.22,1637401887.03125
-98.28,1637401887.046875
-91.81,1637401887.0625
-88.53,1637401887.078125
-86.56,1637401887.09375
-83.04,1637401887.109375
-76.64,1637401887.125
-68.53,1637401887.140625
-61.67,1637401887.15625
-58.7,1637401887.171875
-60.38,1637401887.1875
-65.07,1637401887.203125
-69.75,1637401887.21875
-71.53,1637401887.234375
-69.01,1637401887.25
-62.75,1637401887.265625
-54.84,1637401887.28125
-47.82,1637401887.296875
-43.39,1637401887.3125
-41.75,1637401887.328125
-41.7,1637401887.34375
-41.21,1637401887.359375
-38.61,1637401887.375
-33.24,1637401887.390625
-25.77,1637401887.40625
-17.85,1637401887.421875
-11.21,1637401887.4375
-6.97,1637401887.453125
-5.21,1637401887.46875
-5.06,1637401887.484375
-5.28,1637401887.5
-4.73,1637401887.515625
-2.9,1637401887.53125
0.08,1637401887.546875
3.68,1637401887.5625
7.28,1637401887.578125
10.49,1637401887.59375
13.25,1637401887.609375
15.79,1637401887.625
18.27,1637401887.640625
20.74,1637401887.65625
22.99,1637401887.671875
24.88,1637401887.6875
26.54,1637401887.703125
28.39,1637401887.71875
31.03,1637401887.734375
34.76,1637401887.75
39.37,1637401887.765625
44.07,1637401887.78125
47.92,1637401887.796875
50.26,1637401887.8125
51.08,1637401887.828125
50.86,1637401887.84375
50.37,1637401887.859375
50.14,1637401887.875
50.28,1637401887.890625
50.59,1637401887.90625
50.75,1637401887.921875
50.56,1637401887.9375
50.04,1637401887.953125
49.25,1637401887.96875
48.31,1637401887.984375
47.31,1637401888.0
46.4,1637401888.015625
45.85,1637401888.03125
45.84,1637401888.046875
46.39,1637401888.0625
47.14,1637401888.078125
47.4,1637401888.09375
46.44,1637401888.109375
43.81,1637401888.125
39.56,1637401888.140625
34.27,1637401888.15625
28.73,1637401888.171875
23.58,1637401888.1875
18.94,1637401888.203125
14.36,1637401888.21875
9.15,1637401888.234375
2.62,1637401888.25
-5.46,1637401888.265625
-14.83,1637401888.28125
-24.83,1637401888.296875
-34.7,1637401888.3125
-43.79,1637401888.328125
-51.69,1637401888.34375
-58.14,1637401888.359375
-63.02,1637401888.375
-66.24,1637401888.390625
-67.83,1637401888.40625
-67.99,1637401888.421875
-67.15,1637401888.4375
-65.87,1637401888.453125
-64.68,1637401888.46875
-63.81,1637401888.484375
-63.21,1637401888.5
-62.55,1637401888.515625
-61.5,1637401888.53125
-59.86,1637401888.546875
-57.69,1637401888.5625
-55.27,1637401888.578125
-52.96,1637401888.59375
-50.97,1637401888.609375
-49.3,1637401888.625
-47.71,1637401888.640625
-45.81,1637401888.65625
-43.31,1637401888.671875
-40.14,1637401888.6875
-36.66,1637401888.703125
-33.54,1637401888.71875
-31.59,1637401888.734375
-31.5,1637401888.75
-33.58,1637401888.765625
-37.57,1637401888.78125
-42.61,1637401888.796875
-47.25,1637401888.8125
-49.79,1637401888.828125
-48.63,1637401888.84375
-42.87,1637401888.859375
-32.69,1637401888.875
-19.37,1637401888.890625
-5.02,1637401888.90625
8.13,1637401888.921875
18.46,1637401888.9375
25.39,1637401888.953125
29.37,1637401888.96875
31.36,1637401888.984375
32.35,1637401889.0
32.83,1637401889.015625
32.9,1637401889.03125
32.39,1637401889.046875
31.32,1637401889.0625
29.95,1637401889.078125
28.67,1637401889.09375
27.85,1637401889.109375
27.53,1637401889.125
27.53,1637401889.140625
27.5,1637401889.15625
27.13,1637401889.171875
26.34,1637401889.1875
25.18,1637401889.203125
23.76,1637401889.21875
22.07,1637401889.234375
20.02,1637401889.25
17.48,1637401889.265625
14.47,1637401889.28125
11.23,1637401889.296875
8.16,1637401889.3125
5.66,1637401889.328125
3.94,1637401889.34375
2.92,1637401889.359375
2.3,1637401889.375
1.78,1637401889.390625
1.14,1637401889.40625
0.34,1637401889.421875
-0.62,1637401889.4375
-1.74,1637401889.453125
-3.16,1637401889.46875
-4.94,1637401889.484375
-7.08,1637401889.5
-9.35,1637401889.515625
-11.36,1637401889.53125
-12.75,1637401889.546875
-13.45,1637401889.5625
-13.66,1637401889.578125
-13.96,1637401889.59375
-14.94,1637401889.609375
-17.06,1637401889.625
-20.44,1637401889.640625
-24.69,1637401889.65625
-29.12,1637401889.671875
-32.71,1637401889.6875
-34.33,1637401889.703125
-32.91,1637401889.71875
-27.79,1637401889.734375
-18.91,1637401889.75
-6.94,1637401889.765625
6.71,1637401889.78125
20.24,1637401889.796875
31.86,1637401889.8125
40.24,1637401889.828125
44.9,1637401889.84375
46.23,1637401889.859375
45.14,1637401889.875
42.72,1637401889.890625
39.8,1637401889.90625
36.74,1637401889.921875
33.56,1637401889.9375
30.17,1637401889.953125
26.57,1637401889.96875
22.95,1637401889.984375
19.65,1637401890.0
16.87,1637401890.015625
14.69,1637401890.03125
13.01,1637401890.046875
11.7,1637401890.0625
10.73,1637401890.078125
10.11,1637401890.09375
9.82,1637401890.109375
9.65,1637401890.125
9.25,1637401890.140625
8.26,1637401890.15625
6.5,1637401890.171875
4.06,1637401890.1875
1.36,1637401890.203125
-1.17,1637401890.21875
-3.18,1637401890.234375
-4.65,1637401890.25
-5.8,1637401890.265625
-7.04,1637401890.28125
-8.74,1637401890.296875
-11.03,1637401890.3125
-13.85,1637401890.328125
-16.91,1637401890.34375
-19.84,1637401890.359375
-22.22,1637401890.375
-23.78,1637401890.390625
-24.4,1637401890.40625
-24.13,1637401890.421875
-23.31,1637401890.4375
-22.49,1637401890.453125
-22.35,1637401890.46875
-23.49,1637401890.484375
-26.14,1637401890.5
-29.85,1637401890.515625
-33.49,1637401890.53125
-35.39,1637401890.546875
-33.96,1637401890.5625
-28.22,1637401890.578125
-18.41,1637401890.59375
-5.9,1637401890.609375
7.12,1637401890.625
18.46,1637401890.640625
26.57,1637401890.65625
30.94,1637401890.671875
32.05,1637401890.6875
30.96,1637401890.703125
28.79,1637401890.71875
26.4,1637401890.734375
24.18,1637401890.75
22.25,1637401890.765625
20.54,1637401890.78125
18.95,1637401890.796875
17.43,1637401890.8125
16.0,1637401890.828125
14.7,1637401890.84375
13.57,1637401890.859375
12.65,1637401890.875
12.0,1637401890.890625
11.63,1637401890.90625
11.48,1637401890.921875
11.36,1637401890.9375
10.92,1637401890.953125
9.82,1637401890.96875
7.8,1637401890.984375
4.72,1637401891.0
0.75,1637401891.015625
-3.74,1637401891.03125
-8.16,1637401891.046875
-11.83,1637401891.0625
-14.08,1637401891.078125
-14.5,1637401891.09375
-13.01,1637401891.109375
-10.02,1637401891.125
-6.27,1637401891.140625
-2.64,1637401891.15625
0.19,1637401891.171875
1.92,1637401891.1875
2.77,1637401891.203125
3.09,1637401891.21875
3.18,1637401891.234375
3.0,1637401891.25
2.28,1637401891.265625
0.62,1637401891.28125
-2.16,1637401891.296875
-5.9,1637401891.3125
-10.03,1637401891.328125
-13.74,1637401891.34375
-16.16,1637401891.359375
-16.55,1637401891.375
-14.52,1637401891.390625
-10.16,1637401891.40625
-4.13,1637401891.421875
2.5,1637401891.4375
8.56,1637401891.453125
13.13,1637401891.46875
15.83,1637401891.484375
16.82,1637401891.5
16.55,1637401891.515625
15.44,1637401891.53125
13.71,1637401891.546875
11.39,1637401891.5625
8.54,1637401891.578125
5.33,1637401891.59375
2.13,1637401891.609375
-0.6,1637401891.625
-2.44,1637401891.640625
-3.22,1637401891.65625
-3.01,1637401891.671875
-2.14,1637401891.6875
-1.06,1637401891.703125
-0.27,1637401891.71875
-0.11,1637401891.734375
-0.74,1637401891.75
-2.05,1637401891.765625
-3.78,1637401891.78125
-5.6,1637401891.796875
-7.27,1637401891.8125
-8.69,1637401891.828125
-9.89,1637401891.84375
-10.92,1637401891.859375
-11.85,1637401891.875
-12.7,1637401891.890625
-13.54,1637401891.90625
-14.52,1637401891.921875
-15.85,1637401891.9375
-17.64,1637401891.953125
-19.83,1637401891.96875
-22.22,1637401891.984375
-24.5,1637401892.0
-26.41,1637401892.015625
-27.86,1637401892.03125
-28.94,1637401892.046875
-29.8,1637401892.0625
-30.62,1637401892.078125
-31.58,1637401892.09375
-32.9,1637401892.109375
-34.95,1637401892.125
-38.14,1637401892.140625
-42.8,1637401892.15625
-48.9,1637401892.171875
-56.08,1637401892.1875
-63.59,1637401892.203125
-70.59,1637401892.21875
-76.44,1637401892.234375
-80.84,1637401892.25
-83.64,1637401892.265625
-84.78,1637401892.28125
-84.09,1637401892.296875
-81.36,1637401892.3125
-76.54,1637401892.328125
-69.9,1637401892.34375
-61.89,1637401892.359375
-53.05,1637401892.375
-43.63,1637401892.390625
-33.46,1637401892.40625
-22.14,1637401892.421875
-9.35,1637401892.4375
4.79,1637401892.453125
19.64,1637401892.46875
34.17,1637401892.484375
47.27,1637401892.5
58.11,1637401892.515625
66.26,1637401892.53125
71.65,1637401892.546875
74.49,1637401892.5625
75.22,1637401892.578125
74.47,1637401892.59375
72.99,1637401892.609375
71.56,1637401892.625
70.83,1637401892.640625
71.0,1637401892.65625
71.88,1637401892.671875
72.96,1637401892.6875
73.59,1637401892.703125
73.26,1637401892.71875
71.82,1637401892.734375
69.37,1637401892.75
66.29,1637401892.765625
63.02,1637401892.78125
59.96,1637401892.796875
57.45,1637401892.8125
55.66,1637401892.828125
54.61,1637401892.84375
54.11,1637401892.859375
53.87,1637401892.875
53.48,1637401892.890625
52.64,1637401892.90625
51.24,1637401892.921875
49.43,1637401892.9375
47.52,1637401892.953125
45.9,1637401892.96875
44.81,1637401892.984375
44.3,1637401893.0
44.1,1637401893.015625
43.79,1637401893.03125
42.98,1637401893.046875
41.51,1637401893.0625
39.52,1637401893.078125
37.42,1637401893.09375
35.65,1637401893.109375
34.39,1637401893.125
33.56,1637401893.140625
32.73,1637401893.15625
31.43,1637401893.171875
29.3,1637401893.1875
26.36,1637401893.203125
22.94,1637401893.21875
19.61,1637401893.234375
16.77,1637401893.25
14.5,1637401893.265625
12.48,1637401893.28125
10.14,1637401893.296875
7.03,1637401893.3125
2.99,1637401893.328125
-1.67,1637401893.34375
-6.31,1637401893.359375
-10.28,1637401893.375
-13.11,1637401893.390625
-14.61,1637401893.40625
-14.94,1637401893.421875
-14.34,1637401893.4375
-13.07,1637401893.453125
-11.31,1637401893.46875
-9.23,1637401893.484375
-7.05,1637401893.5
-5.06,1637401893.515625
-3.53,1637401893.53125
-2.74,1637401893.546875
-2.83,1637401893.5625
-3.84,1637401893.578125
-5.78,1637401893.59375
-8.58,1637401893.609375
-12.16,1637401893.625
-16.38,1637401893.640625
-21.04,1637401893.65625
-25.78,1637401893.671875
-30.19,1637401893.6875
-33.86,1637401893.703125
-36.58,1637401893.71875
-38.4,1637401893.734375
-39.58,1637401893.75
-40.58,1637401893.765625
-41.8,1637401893.78125
-43.44,1637401893.796875
-45.46,1637401893.8125
-47.61,1637401893.828125
-49.58,1637401893.84375
-51.03,1637401893.859375
-51.73,1637401893.875
-51.53,1637401893.890625
-50.36,1637401893.90625
-48.27,1637401893.921875
-45.31,1637401893.9375
-41.6,1637401893.953125
-37.23,1637401893.96875
-32.27,1637401893.984375
-26.71,1637401894.0
-20.69,1637401894.015625
-14.42,1637401894.03125
-8.25,1637401894.046875
-2.55,1637401894.0625
2.36,1637401894.078125
6.33,1637401894.09375
9.39,1637401894.109375
11.54,1637401894.125
12.78,1637401894.140625
13.05,1637401894.15625
12.32,1637401894.171875
10.73,1637401894.1875
8.69,1637401894.203125
6.7,1637401894.21875
5.16,1637401894.234375
4.16,1637401894.25
3.52,1637401894.265625
2.88,1637401894.28125
1.99,1637401894.296875
0.81,1637401894.3125
-0.48,1637401894.328125
-1.66,1637401894.34375
-2.5,1637401894.359375
-2.88,1637401894.375
-2.76,1637401894.390625
-2.18,1637401894.40625
-1.24,1637401894.421875
-0.14,1637401894.4375
0.81,1637401894.453125
1.26,1637401894.46875
0.9,1637401894.484375
-0.38,1637401894.5
-2.52,1637401894.515625
-5.27,1637401894.53125
-8.25,1637401894.546875
-11.07,1637401894.5625
-13.33,1637401894.578125
-14.79,1637401894.59375
-15.32,1637401894.609375
-14.99,1637401894.625
-13.99,1637401894.640625
-12.63,1637401894.65625
-11.08,1637401894.671875
-9.46,1637401894.6875
-7.79,1637401894.703125
-6.06,1637401894.71875
-4.25,1637401894.734375
-2.34,1637401894.75
-0.35,1637401894.765625
1.7,1637401894.78125
3.74,1637401894.796875
5.66,1637401894.8125
7.24,1637401894.828125
8.29,1637401894.84375
8.61,1637401894.859375
8.1,1637401894.875
6.79,1637401894.890625
4.96,1637401894.90625
2.98,1637401894.921875
1.27,1637401894.9375
0.14,1637401894.953125
-0.37,1637401894.96875
-0.55,1637401894.984375
-0.82,1637401895.0
-1.54,1637401895.015625
-2.73,1637401895.03125
-4.09,1637401895.046875
-5.05,1637401895.0625
-5.11,1637401895.078125
-4.13,1637401895.09375
-2.35,1637401895.109375
-0.29,1637401895.125
1.46,1637401895.140625
2.39,1637401895.15625
2.31,1637401895.171875
1.27,1637401895.1875
-0.37,1637401895.203125
-2.08,1637401895.21875
-3.38,1637401895.234375
-3.99,1637401895.25
-3.99,1637401895.265625
-3.76,1637401895.28125
-3.85,1637401895.296875
-4.61,1637401895.3125
-6.09,1637401895.328125
-7.95,1637401895.34375
-9.69,1637401895.359375
-10.91,1637401895.375
-11.53,1637401895.390625
-11.62,1637401895.40625
-11.31,1637401895.421875
-10.65,1637401895.4375
-9.55,1637401895.453125
-7.96,1637401895.46875
-6.0,1637401895.484375
-3.96,1637401895.5
-2.1,1637401895.515625
-0.59,1637401895.53125
0.67,1637401895.546875
1.85,1637401895.5625
3.03,1637401895.578125
4.07,1637401895.59375
4.67,1637401895.609375
4.63,1637401895.625
3.99,1637401895.640625
3.1,1637401895.65625
2.38,1637401895.671875
2.14,1637401895.6875
2.41,1637401895.703125
2.96,1637401895.71875
3.35,1637401895.734375
3.24,1637401895.75
2.5,1637401895.765625
1.33,1637401895.78125
0.11,1637401895.796875
-0.76,1637401895.8125
-1.05,1637401895.828125
-0.8,1637401895.84375
-0.39,1637401895.859375
-0.25,1637401895.875
-0.76,1637401895.890625
-1.98,1637401895.90625
-3.6,1637401895.921875
-5.12,1637401895.9375
-6.05,1637401895.953125
-6.13,1637401895.96875
-5.46,1637401895.984375
-4.32,1637401896.0
-3.1,1637401896.015625
-2.1,1637401896.03125
-1.5,1637401896.046875
-1.36,1637401896.0625
-1.68,1637401896.078125
-2.41,1637401896.09375
-3.44,1637401896.109375
-4.58,1637401896.125
-5.55,1637401896.140625
-6.12,1637401896.15625
-6.13,1637401896.171875
-5.61,1637401896.1875
-4.76,1637401896.203125
-3.87,1637401896.21875
-3.2,1637401896.234375
-2.89,1637401896.25
-2.91,1637401896.265625
-3.08,1637401896.28125
-3.1,1637401896.296875
-2.66,1637401896.3125
-1.58,1637401896.328125
0.22,1637401896.34375
2.54,1637401896.359375
4.98,1637401896.375
7.06,1637401896.390625
8.46,1637401896.40625
9.07,1637401896.421875
9.14,1637401896.4375
9.05,1637401896.453125
9.11,1637401896.46875
9.31,1637401896.484375
9.23,1637401896.5
8.47,1637401896.515625
6.82,1637401896.53125
4.58,1637401896.546875
2.46,1637401896.5625
1.22,1637401896.578125
1.31,1637401896.59375
2.65,1637401896.609375
4.77,1637401896.625
7.12,1637401896.640625
9.31,1637401896.65625
11.17,1637401896.671875
12.63,1637401896.6875
13.57,1637401896.703125
13.81,1637401896.71875
13.18,1637401896.734375
11.73,1637401896.75
9.73,1637401896.765625
7.57,1637401896.78125
5.55,1637401896.796875
3.8,1637401896.8125
2.23,1637401896.828125
0.71,1637401896.84375
-0.75,1637401896.859375
-2.1,1637401896.875
-3.22,1637401896.890625
-4.0,1637401896.90625
-4.45,1637401896.921875
-4.55,1637401896.9375
-4.33,1637401896.953125
-3.75,1637401896.96875
-2.78,1637401896.984375
-1.46,1637401897.0
0.1,1637401897.015625
1.64,1637401897.03125
2.91,1637401897.046875
3.69,1637401897.0625
3.86,1637401897.078125
3.49,1637401897.09375
2.75,1637401897.109375
1.81,1637401897.125
0.88,1637401897.140625
0.07,1637401897.15625
-0.58,1637401897.171875
-1.07,1637401897.1875
-1.39,1637401897.203125
-1.48,1637401897.21875
-1.34,1637401897.234375
-1.01,1637401897.25
-0.65,1637401897.265625
-0.44,1637401897.28125
-0.51,1637401897.296875
-0.83,1637401897.3125
-1.3,1637401897.328125
-1.75,1637401897.34375
-2.11,1637401897.359375
-2.44,1637401897.375
-2.84,1637401897.390625
-3.34,1637401897.40625
-3.8,1637401897.421875
-3.94,1637401897.4375
-3.44,1637401897.453125
-2.12,1637401897.46875
-0.13,1637401897.484375
2.13,1637401897.5
4.13,1637401897.515625
5.36,1637401897.53125
5.56,1637401897.546875
4.75,1637401897.5625
3.21,1637401897.578125
1.32,1637401897.59375
-0.44,1637401897.609375
-1.74,1637401897.625
-2.36,1637401897.640625
-2.29,1637401897.65625
-1.7,1637401897.671875
-0.9,1637401897.6875
-0.24,1637401897.703125
0.04,1637401897.71875
-0.23,1637401897.734375
-0.95,1637401897.75
-1.91,1637401897.765625
-2.8,1637401897.78125
-3.42,1637401897.796875
-3.59,1637401897.8125
-3.31,1637401897.828125
-2.67,1637401897.84375
-1.79,1637401897.859375
-0.85,1637401897.875
-0.05,1637401897.890625
0.45,1637401897.90625
0.58,1637401897.921875
0.44,1637401897.9375
0.28,1637401897.953125
0.4,1637401897.96875
0.9,1637401897.984375
1.69,1637401898.0
2.44,1637401898.015625
2.84,1637401898.03125
2.72,1637401898.046875
2.17,1637401898.0625
1.44,1637401898.078125
0.78,1637401898.09375
0.31,1637401898.109375
-0.02,1637401898.125
-0.34,1637401898.140625
-0.78,1637401898.15625
-1.33,1637401898.171875
-1.97,1637401898.1875
-2.66,1637401898.203125
-3.41,1637401898.21875
-4.22,1637401898.234375
-5.02,1637401898.25
-5.65,1637401898.265625
-5.86,1637401898.28125
-5.55,1637401898.296875
-4.74,1637401898.3125
-3.63,1637401898.328125
-2.49,1637401898.34375
-1.54,1637401898.359375
-0.9,1637401898.375
-0.6,1637401898.390625
-0.55,1637401898.40625
-0.7,1637401898.421875
-0.96,1637401898.4375
-1.26,1637401898.453125
-1.45,1637401898.46875
-1.44,1637401898.484375
-1.16,1637401898.5
-0.63,1637401898.515625
0.01,1637401898.53125
0.59,1637401898.546875
0.95,1637401898.5625
1.02,1637401898.578125
0.8,1637401898.59375
0.41,1637401898.609375
0.04,1637401898.625
-0.13,1637401898.640625
0.03,1637401898.65625
0.56,1637401898.671875
1.33,1637401898.6875
2.07,1637401898.703125
2.51,1637401898.71875
2.47,1637401898.734375
1.95,1637401898.75
1.15,1637401898.765625
0.37,1637401898.78125
-0.07,1637401898.796875
0.01,1637401898.8125
0.64,1637401898.828125
1.73,1637401898.84375
3.06,1637401898.859375
4.39,1637401898.875
5.49,1637401898.890625
6.22,1637401898.90625
6.55,1637401898.921875
6.57,1637401898.9375
6.43,1637401898.953125
6.27,1637401898.96875
6.12,1637401898.984375
5.92,1637401899.0
5.56,1637401899.015625
5.04,1637401899.03125
4.46,1637401899.046875
4.07,1637401899.0625
4.08,1637401899.078125
4.53,1637401899.09375
5.28,1637401899.109375
6.04,1637401899.125
6.59,1637401899.140625
6.81,1637401899.15625
6.81,1637401899.171875
6.84,1637401899.1875
7.11,1637401899.203125
7.72,1637401899.21875
8.56,1637401899.234375
9.28,1637401899.25
9.45,1637401899.265625
8.66,1637401899.28125
6.68,1637401899.296875
3.58,1637401899.3125
-0.35,1637401899.328125
-4.56,1637401899.34375
-8.42,1637401899.359375
-11.39,1637401899.375
-13.17,1637401899.390625
-13.69,1637401899.40625
-13.16,1637401899.421875
-11.98,1637401899.4375
-10.55,1637401899.453125
-9.23,1637401899.46875
-8.24,1637401899.484375
-7.7,1637401899.5
-7.58,1637401899.515625
-7.74,1637401899.53125
-8.0,1637401899.546875
-8.13,1637401899.5625
-7.93,1637401899.578125
-7.31,1637401899.59375
-6.33,1637401899.609375
-5.19,1637401899.625
-4.09,1637401899.640625
-3.17,1637401899.65625
-2.39,1637401899.671875
-1.59,1637401899.6875
-0.67,1637401899.703125
0.36,1637401899.71875
1.31,1637401899.734375
1.96,1637401899.75
2.19,1637401899.765625
2.09,1637401899.78125
1.91,1637401899.796875
1.93,1637401899.8125
2.19,1637401899.828125
2.56,1637401899.84375
2.73,1637401899.859375
2.4,1637401899.875
1.46,1637401899.890625
0.08,1637401899.90625
-1.41,1637401899.921875
-2.6,1637401899.9375
-3.2,1637401899.953125
-3.12,1637401899.96875
-2.49,1637401899.984375
-1.54,1637401900.0
-0.61,1637401900.015625
0.05,1637401900.03125
0.32,1637401900.046875
0.13,1637401900.0625
-0.43,1637401900.078125
-1.23,1637401900.09375
-2.11,1637401900.109375
-2.95,1637401900.125
-3.6,1637401900.140625
-3.99,1637401900.15625
-4.05,1637401900.171875
-3.84,1637401900.1875
-3.43,1637401900.203125
-2.95,1637401900.21875
-2.54,1637401900.234375
-2.26,1637401900.25
-2.1,1637401900.265625
-1.87,1637401900.28125
-1.28,1637401900.296875
-0.05,1637401900.3125
2.02,1637401900.328125
4.8,1637401900.34375
7.9,1637401900.359375
10.73,1637401900.375
12.72,1637401900.390625
13.5,1637401900.40625
13.15,1637401900.421875
12.09,1637401900.4375
11.03,1637401900.453125
10.75,1637401900.46875
11.69,1637401900.484375
13.91,1637401900.5
16.87,1637401900.515625
19.61,1637401900.53125
20.9,1637401900.546875
19.72,1637401900.5625
15.44,1637401900.578125
8.04,1637401900.59375
-1.84,1637401900.609375
-13.18,1637401900.625
-24.72,1637401900.640625
-35.15,1637401900.65625
-43.3,1637401900.671875
-48.27,1637401900.6875
-49.61,1637401900.703125
-47.49,1637401900.71875
-42.8,1637401900.734375
-36.92,1637401900.75
-31.47,1637401900.765625
-27.79,1637401900.78125
-26.52,1637401900.796875
-27.38,1637401900.8125
-29.23,1637401900.828125
-30.54,1637401900.84375
-29.87,1637401900.859375
-26.54,1637401900.875
-20.82,1637401900.890625
-13.8,1637401900.90625
-6.94,1637401900.921875
-1.42,1637401900.9375
2.22,1637401900.953125
4.2,1637401900.96875
5.12,1637401900.984375
5.67,1637401901.0
6.35,1637401901.015625
7.51,1637401901.03125
9.47,1637401901.046875
12.66,1637401901.0625
17.52,1637401901.078125
24.26,1637401901.09375
32.62,1637401901.109375
41.87,1637401901.125
50.99,1637401901.140625
59.1,1637401901.15625
65.67,1637401901.171875
70.61,1637401901.1875
74.07,1637401901.203125
76.14,1637401901.21875
76.6,1637401901.234375
74.87,1637401901.25
70.36,1637401901.265625
62.8,1637401901.28125
52.53,1637401901.296875
40.62,1637401901.3125
28.55,1637401901.328125
17.77,1637401901.34375
9.26,1637401901.359375
3.32,1637401901.375
-0.35,1637401901.390625
-2.33,1637401901.40625
-3.22,1637401901.421875
-3.52,1637401901.4375
-3.63,1637401901.453125
-3.95,1637401901.46875
-4.84,1637401901.484375
-6.54,1637401901.5
-9.08,1637401901.515625
-12.21,1637401901.53125
-15.43,1637401901.546875
-18.21,1637401901.5625
-20.22,1637401901.578125
-21.4,1637401901.59375
-21.96,1637401901.609375
-22.26,1637401901.625
-22.53,1637401901.640625
-22.78,1637401901.65625
-22.77,1637401901.671875
-22.05,1637401901.6875
-20.31,1637401901.703125
-17.51,1637401901.71875
-14.01,1637401901.734375
-10.48,1637401901.75
-7.6,1637401901.765625
-5.77,1637401901.78125
-5.01,1637401901.796875
-4.93,1637401901.8125
-5.01,1637401901.828125
-4.78,1637401901.84375
-3.91,1637401901.859375
-2.28,1637401901.875
0.11,1637401901.890625
3.13,1637401901.90625
6.45,1637401901.921875
9.51,1637401901.9375
11.65,1637401901.953125
12.26,1637401901.96875
11.01,1637401901.984375
8.05,1637401902.0
3.95,1637401902.015625
-0.55,1637401902.03125
-4.73,1637401902.046875
-8.15,1637401902.0625
-10.61,1637401902.078125
-12.15,1637401902.09375
-12.88,1637401902.109375
-13.01,1637401902.125
-12.82,1637401902.140625
-12.59,1637401902.15625
-12.52,1637401902.171875
-12.61,1637401902.1875
-12.71,1637401902.203125
-12.61,1637401902.21875
-12.19,1637401902.234375
-11.53,1637401902.25
-10.84,1637401902.265625
-10.31,1637401902.28125
-10.03,1637401902.296875
-9.97,1637401902.3125
-10.12,1637401902.328125
-10.58,1637401902.34375
-11.51,1637401902.359375
-13.01,1637401902.375
-14.97,1637401902.390625
-16.94,1637401902.40625
-18.41,1637401902.421875
-18.93,1637401902.4375
-18.37,1637401902.453125
-16.96,1637401902.46875
-15.18,1637401902.484375
-13.59,1637401902.5
-12.6,1637401902.515625
-12.34,1637401902.53125
-12.65,1637401902.546875
-13.13,1637401902.5625
-13.22,1637401902.578125
-12.49,1637401902.59375
-10.76,1637401902.609375
-8.21,1637401902.625
-5.27,1637401902.640625
-2.43,1637401902.65625
-0.03,1637401902.671875
1.89,1637401902.6875
3.47,1637401902.703125
4.96,1637401902.71875
6.45,1637401902.734375
7.92,1637401902.75
9.21,1637401902.765625
10.2,1637401902.78125
10.85,1637401902.796875
11.19,1637401902.8125
11.19,1637401902.828125
10.91,1637401902.84375
10.41,1637401902.859375
9.89,1637401902.875
9.61,1637401902.890625
9.83,1637401902.90625
10.56,1637401902.921875
11.55,1637401902.9375
12.38,1637401902.953125
12.73,1637401902.96875
12.52,1637401902.984375
12.02,1637401903.0
11.65,1637401903.015625
11.73,1637401903.03125
12.28,1637401903.046875
12.99,1637401903.0625
13.4,1637401903.078125
13.14,1637401903.09375
12.1,1637401903.109375
10.38,1637401903.125
8.24,1637401903.140625
5.88,1637401903.15625
3.55,1637401903.171875
1.42,1637401903.1875
-0.21,1637401903.203125
-1.13,1637401903.21875
-1.28,1637401903.234375
-0.89,1637401903.25
-0.4,1637401903.265625
-0.32,1637401903.28125
-1.0,1637401903.296875
-2.47,1637401903.3125
-4.49,1637401903.328125
-6.65,1637401903.34375
-8.52,1637401903.359375
-9.69,1637401903.375
-9.93,1637401903.390625
-9.08,1637401903.40625
-7.26,1637401903.421875
-4.83,1637401903.4375
-2.38,1637401903.453125
-0.56,1637401903.46875
0.21,1637401903.484375
-0.18,1637401903.5
-1.39,1637401903.515625
-2.93,1637401903.53125
-4.32,1637401903.546875
-5.3,1637401903.5625
-5.85,1637401903.578125
-6.03,1637401903.59375
-5.93,1637401903.609375
-5.59,1637401903.625
-5.05,1637401903.640625
-4.39,1637401903.65625
-3.7,1637401903.671875
-3.02,1637401903.6875
-2.28,1637401903.703125
-1.38,1637401903.71875
-0.26,1637401903.734375
0.99,1637401903.75
2.15,1637401903.765625
2.98,1637401903.78125
3.36,1637401903.796875
3.41,1637401903.8125
3.44,1637401903.828125
3.76,1637401903.84375
4.56,1637401903.859375
5.81,1637401903.875
7.24,1637401903.890625
8.58,1637401903.90625
9.55,1637401903.921875
10.08,1637401903.9375
10.14,1637401903.953125
9.82,1637401903.96875
9.17,1637401903.984375
8.33,1637401904.0
7.45,1637401904.015625
6.64,1637401904.03125
5.99,1637401904.046875
5.55,1637401904.0625
5.24,1637401904.078125
4.89,1637401904.09375
4.38,1637401904.109375
3.63,1637401904.125
2.68,1637401904.140625
1.66,1637401904.15625
0.78,1637401904.171875
0.22,1637401904.1875
0.15,1637401904.203125
0.65,1637401904.21875
1.68,1637401904.234375
3.11,1637401904.25
4.64,1637401904.265625
5.91,1637401904.28125
6.63,1637401904.296875
6.64,1637401904.3125
6.04,1637401904.328125
5.09,1637401904.34375
4.13,1637401904.359375
3.43,1637401904.375
3.04,1637401904.390625
2.88,1637401904.40625
2.76,1637401904.421875
2.54,1637401904.4375
2.2,1637401904.453125
1.81,1637401904.46875
1.48,1637401904.484375
1.25,1637401904.5
1.09,1637401904.515625
0.9,1637401904.53125
0.54,1637401904.546875
-0.08,1637401904.5625
-0.98,1637401904.578125
-2.1,1637401904.59375
-3.29,1637401904.609375
-4.41,1637401904.625
-5.43,1637401904.640625
-6.44,1637401904.65625
-7.58,1637401904.671875
-8.98,1637401904.6875
-10.53,1637401904.703125
-12.03,1637401904.71875
-13.11,1637401904.734375
-13.5,1637401904.75
-13.14,1637401904.765625
-12.23,1637401904.78125
-11.09,1637401904.796875
-10.05,1637401904.8125
-9.26,1637401904.828125
-8.68,1637401904.84375
-8.16,1637401904.859375
-7.55,1637401904.875
-6.79,1637401904.890625
-5.94,1637401904.90625
-5.09,1637401904.921875
-4.27,1637401904.9375
-3.44,1637401904.953125
-2.54,1637401904.96875
-1.47,1637401904.984375
-0.25,1637401905.0
1.06,1637401905.015625
2.34,1637401905.03125
3.42,1637401905.046875
4.12,1637401905.0625
4.29,1637401905.078125
3.8,1637401905.09375
2.7,1637401905.109375
1.2,1637401905.125
-0.39,1637401905.140625
-1.7,1637401905.15625
-2.45,1637401905.171875
-2.55,1637401905.1875
-2.02,1637401905.203125
-0.95,1637401905.21875
0.51,1637401905.234375
2.21,1637401905.25
3.89,1637401905.265625
5.23,1637401905.28125
5.96,1637401905.296875
5.96,1637401905.3125
5.41,1637401905.328125
4.69,1637401905.34375
4.13,1637401905.359375
3.87,1637401905.375
3.81,1637401905.390625
3.67,1637401905.40625
3.27,1637401905.421875
2.7,1637401905.4375
2.19,1637401905.453125
2.0,1637401905.46875
2.12,1637401905.484375
2.32,1637401905.5
2.22,1637401905.515625
1.59,1637401905.53125
0.45,1637401905.546875
-0.89,1637401905.5625
-2.05,1637401905.578125
-2.74,1637401905.59375
-2.87,1637401905.609375
-2.5,1637401905.625
-1.73,1637401905.640625
-0.62,1637401905.65625
0.77,1637401905.671875
2.35,1637401905.6875
3.99,1637401905.703125
5.44,1637401905.71875
6.44,1637401905.734375
6.83,1637401905.75
6.59,1637401905.765625
5.86,1637401905.78125
4.98,1637401905.796875
4.3,1637401905.8125
4.15,1637401905.828125
4.68,1637401905.84375
5.76,1637401905.859375
7.02,1637401905.875
7.92,1637401905.890625
8.04,1637401905.90625
7.19,1637401905.921875
5.63,1637401905.9375
3.85,1637401905.953125
2.39,1637401905.96875
1.6,1637401905.984375
1.44,1637401906.0
1.65,1637401906.015625
1.84,1637401906.03125
1.76,1637401906.046875
1.37,1637401906.0625
0.7,1637401906.078125
-0.14,1637401906.09375
-1.19,1637401906.109375
-2.48,1637401906.125
-4.02,1637401906.140625
-5.64,1637401906.15625
-7.07,1637401906.171875
-7.99,1637401906.1875
-8.25,1637401906.203125
-7.86,1637401906.21875
-7.01,1637401906.234375
-5.9,1637401906.25
-4.74,1637401906.265625
-3.66,1637401906.28125
-2.8,1637401906.296875
-2.3,1637401906.3125
-2.23,1637401906.328125
-2.59,1637401906.34375
-3.3,1637401906.359375
-4.22,1637401906.375
-5.22,1637401906.390625
-6.2,1637401906.40625
-7.01,1637401906.421875
-7.5,1637401906.4375
-7.45,1637401906.453125
-6.71,1637401906.46875
-5.26,1637401906.484375
-3.26,1637401906.5
-1.01,1637401906.515625
1.24,1637401906.53125
3.27,1637401906.546875
5.06,1637401906.5625
6.61,1637401906.578125
7.88,1637401906.59375
8.74,1637401906.609375
9.02,1637401906.625
8.58,1637401906.640625
7.4,1637401906.65625
5.62,1637401906.671875
3.48,1637401906.6875
1.28,1637401906.703125
-0.74,1637401906.71875
-2.34,1637401906.734375
-3.37,1637401906.75
-3.78,1637401906.765625
-3.57,1637401906.78125
-2.91,1637401906.796875
-2.05,1637401906.8125
-1.35,1637401906.828125
-1.12,1637401906.84375
-1.53,1637401906.859375
-2.6,1637401906.875
-4.1,1637401906.890625
-5.68,1637401906.90625
-7.0,1637401906.921875
-7.84,1637401906.9375
-8.15,1637401906.953125
-8.03,1637401906.96875
-7.69,1637401906.984375
-7.3,1637401907.0
-7.05,1637401907.015625
-6.99,1637401907.03125
-7.08,1637401907.046875
-7.17,1637401907.0625
-7.12,1637401907.078125
-6.84,1637401907.09375
-6.38,1637401907.109375
-5.87,1637401907.125
-5.42,1637401907.140625
-5.08,1637401907.15625
-4.76,1637401907.171875
-4.31,1637401907.1875
-3.59,1637401907.203125
-2.57,1637401907.21875
-1.31,1637401907.234375
0.14,1637401907.25
1.69,1637401907.265625
3.34,1637401907.28125
5.04,1637401907.296875
6.66,1637401907.3125
7.97,1637401907.328125
8.66,1637401907.34375
8.5,1637401907.359375
7.41,1637401907.375
5.46,1637401907.390625
2.92,1637401907.40625
0.08,1637401907.421875
-2.74,1637401907.4375
-5.25,1637401907.453125
-7.19,1637401907.46875
-8.45,1637401907.484375
-8.99,1637401907.5
-9.0,1637401907.515625
-8.74,1637401907.53125
-8.49,1637401907.546875
-8.3,1637401907.5625
-8.08,1637401907.578125
-7.5,1637401907.59375
-6.29,1637401907.609375
-4.35,1637401907.625
-1.82,1637401907.640625
0.97,1637401907.65625
3.68,1637401907.671875
6.08,1637401907.6875
8.11,1637401907.703125
9.79,1637401907.71875
11.11,1637401907.734375
12.0,1637401907.75
12.32,1637401907.765625
12.04,1637401907.78125
11.25,1637401907.796875
10.21,1637401907.8125
9.22,1637401907.828125
8.54,1637401907.84375
8.22,1637401907.859375
8.28,1637401907.875
8.63,1637401907.890625
9.22,1637401907.90625
9.95,1637401907.921875
10.73,1637401907.9375
11.39,1637401907.953125
11.77,1637401907.96875
11.74,1637401907.984375
11.3,1637401908.0
10.56,1637401908.015625
9.7,1637401908.03125
8.89,1637401908.046875
8.21,1637401908.0625
7.59,1637401908.078125
6.86,1637401908.09375
5.74,1637401908.109375
3.97,1637401908.125
1.38,1637401908.140625
-2.01,1637401908.15625
-5.93,1637401908.171875
-9.86,1637401908.1875
-13.21,1637401908.203125
-15.5,1637401908.21875
-16.56,1637401908.234375
-16.54,1637401908.25
-15.82,1637401908.265625
-14.73,1637401908.28125
-13.43,1637401908.296875
-11.9,1637401908.3125
-10.03,1637401908.328125
-7.79,1637401908.34375
-5.37,1637401908.359375
-3.09,1637401908.375
-1.3,1637401908.390625
-0.21,1637401908.40625
0.17,1637401908.421875
0.04,1637401908.4375
-0.3,1637401908.453125
-0.55,1637401908.46875
-0.51,1637401908.484375
-0.05,1637401908.5
0.66,1637401908.515625
1.39,1637401908.53125
1.86,1637401908.546875
1.96,1637401908.5625
1.96,1637401908.578125
2.31,1637401908.59375
3.5,1637401908.609375
5.65,1637401908.625
8.38,1637401908.640625
10.94,1637401908.65625
12.46,1637401908.671875
12.45,1637401908.6875
11.02,1637401908.703125
8.77,1637401908.71875
6.52,1637401908.734375
4.83,1637401908.75
3.89,1637401908.765625
3.5,1637401908.78125
3.31,1637401908.796875
3.15,1637401908.8125
3.03,1637401908.828125
3.06,1637401908.84375
3.33,1637401908.859375
3.71,1637401908.875
3.97,1637401908.890625
3.8,1637401908.90625
3.06,1637401908.921875
1.9,1637401908.9375
0.75,1637401908.953125
0.09,1637401908.96875
0.24,1637401908.984375
1.16,1637401909.0
2.53,1637401909.015625
3.86,1637401909.03125
4.71,1637401909.046875
4.94,1637401909.0625
4.65,1637401909.078125
4.11,1637401909.09375
3.58,1637401909.109375
3.15,1637401909.125
2.82,1637401909.140625
2.43,1637401909.15625
1.87,1637401909.171875
1.12,1637401909.1875
0.26,1637401909.203125
-0.52,1637401909.21875
-1.04,1637401909.234375
-1.21,1637401909.25
-1.13,1637401909.265625
-0.97,1637401909.28125
-0.98,1637401909.296875
-1.3,1637401909.3125
-1.93,1637401909.328125
-2.69,1637401909.34375
-3.3,1637401909.359375
-3.59,1637401909.375
-3.54,1637401909.390625
-3.25,1637401909.40625
-2.94,1637401909.421875
-2.71,1637401909.4375
-2.54,1637401909.453125
-2.31,1637401909.46875
-1.91,1637401909.484375
-1.33,1637401909.5
-0.68,1637401909.515625
-0.16,1637401909.53125
0.06,1637401909.546875
-0.09,1637401909.5625
-0.5,1637401909.578125
-1.0,1637401909.59375
-1.36,1637401909.609375
-1.49,1637401909.625
-1.42,1637401909.640625
-1.25,1637401909.65625
-1.17,1637401909.671875
-1.28,1637401909.6875
-1.56,1637401909.703125
-1.9,1637401909.71875
-2.21,1637401909.734375
-2.42,1637401909.75
-2.58,1637401909.765625
-2.8,1637401909.78125
-3.19,1637401909.796875
-3.73,1637401909.8125
-4.31,1637401909.828125
-4.78,1637401909.84375
-4.94,1637401909.859375
-4.79,1637401909.875
-4.39,1637401909.890625
-3.86,1637401909.90625
-3.33,1637401909.921875
-2.84,1637401909.9375
-2.39,1637401909.953125
-1.93,1637401909.96875
-1.54,1637401909.984375
-1.33,1637401910.0
-1.53,1637401910.015625
-2.32,1637401910.03125
-3.66,1637401910.046875
-5.33,1637401910.0625
-6.92,1637401910.078125
-8.03,1637401910.09375
-8.39,1637401910.109375
-7.94,1637401910.125
-6.76,1637401910.140625
-5.09,1637401910.15625
-3.16,1637401910.171875
-1.14,1637401910.1875
0.83,1637401910.203125
2.71,1637401910.21875
4.42,1637401910.234375
5.83,1637401910.25
6.73,1637401910.265625
6.88,1637401910.28125
6.17,1637401910.296875
4.69,1637401910.3125
2.82,1637401910.328125
1.06,1637401910.34375
-0.18,1637401910.359375
-0.79,1637401910.375
-0.96,1637401910.390625
-1.06,1637401910.40625
-1.32,1637401910.421875
-1.79,1637401910.4375
-2.3,1637401910.453125
-2.6,1637401910.46875
-2.58,1637401910.484375
-2.2,1637401910.5
-1.5,1637401910.515625
-0.44,1637401910.53125
1.05,1637401910.546875
3.02,1637401910.5625
5.31,1637401910.578125
7.58,1637401910.59375
9.41,1637401910.609375
10.48,1637401910.625
10.71,1637401910.640625
10.2,1637401910.65625
9.18,1637401910.671875
7.83,1637401910.6875
6.27,1637401910.703125
4.59,1637401910.71875
2.92,1637401910.734375
1.45,1637401910.75
0.37,1637401910.765625
-0.18,1637401910.78125
-0.29,1637401910.796875
-0.09,1637401910.8125
0.15,1637401910.828125
0.19,1637401910.84375
-0.2,1637401910.859375
-1.1,1637401910.875
-2.51,1637401910.890625
-4.3,1637401910.90625
-6.15,1637401910.921875
-7.71,1637401910.9375
-8.6,1637401910.953125
-8.63,1637401910.96875
-7.78,1637401910.984375
-6.31,1637401911.0
-4.57,1637401911.015625
-2.97,1637401911.03125
-1.79,1637401911.046875
-1.2,1637401911.0625
-1.23,1637401911.078125
-1.76,1637401911.09375
-2.55,1637401911.109375
-3.29,1637401911.125
-3.62,1637401911.140625
-3.28,1637401911.15625
-2.29,1637401911.171875
-0.86,1637401911.1875
0.62,1637401911.203125
1.8,1637401911.21875
2.51,1637401911.234375
2.89,1637401911.25
3.15,1637401911.265625
3.53,1637401911.28125
4.07,1637401911.296875
4.63,1637401911.3125
4.93,1637401911.328125
4.83,1637401911.34375
4.27,1637401911.359375
3.4,1637401911.375
2.4,1637401911.390625
1.42,1637401911.40625
0.52,1637401911.421875
-0.27,1637401911.4375
-0.87,1637401911.453125
-1.14,1637401911.46875
-0.8,1637401911.484375
0.32,1637401911.5
2.21,1637401911.515625
4.58,1637401911.53125
6.93,1637401911.546875
8.68,1637401911.5625
9.44,1637401911.578125
9.11,1637401911.59375
7.98,1637401911.609375
6.47,1637401911.625
4.98,1637401911.640625
3.74,1637401911.65625
2.72,1637401911.671875
1.76,1637401911.6875
0.69,1637401911.703125
-0.48,1637401911.71875
-1.67,1637401911.734375
-2.74,1637401911.75
-3.65,1637401911.765625
-4.49,1637401911.78125
-5.39,1637401911.796875
-6.39,1637401911.8125
-7.31,1637401911.828125
-7.82,1637401911.84375
-7.63,1637401911.859375
-6.69,1637401911.875
-5.26,1637401911.890625
-3.82,1637401911.90625
-2.83,1637401911.921875
-2.41,1637401911.9375
-2.39,1637401911.953125
-2.39,1637401911.96875
-2.11,1637401911.984375
-1.53,1637401912.0
-0.94,1637401912.015625
-0.69,1637401912.03125
-0.96,1637401912.046875
-1.66,1637401912.0625
-2.5,1637401912.078125
-3.26,1637401912.09375
-3.85,1637401912.109375
-4.41,1637401912.125
-5.09,1637401912.140625
-5.85,1637401912.15625
-6.49,1637401912.171875
-6.69,1637401912.1875
-6.24,1637401912.203125
-5.21,1637401912.21875
-3.91,1637401912.234375
-2.73,1637401912.25
-2.08,1637401912.265625
-2.1,1637401912.28125
-2.76,1637401912.296875
-3.79,1637401912.3125
-4.84,1637401912.328125
-5.53,1637401912.34375
-5.56,1637401912.359375
-4.83,1637401912.375
-3.48,1637401912.390625
-1.88,1637401912.40625
-0.59,1637401912.421875
-0.07,1637401912.4375
-0.52,1637401912.453125
-1.75,1637401912.46875
-3.27,1637401912.484375
-4.41,1637401912.5
-4.66,1637401912.515625
-3.8,1637401912.53125
-1.93,1637401912.546875
0.57,1637401912.5625
3.29,1637401912.578125
5.77,1637401912.59375
7.74,1637401912.609375
9.03,1637401912.625
9.6,1637401912.640625
9.46,1637401912.65625
8.73,1637401912.671875
7.59,1637401912.6875
6.25,1637401912.703125
4.93,1637401912.71875
3.85,1637401912.734375
3.22,1637401912.75
3.15,1637401912.765625
3.67,1637401912.78125
4.71,1637401912.796875
6.1,1637401912.8125
7.61,1637401912.828125
9.06,1637401912.84375
10.34,1637401912.859375
11.33,1637401912.875
12.01,1637401912.890625
12.25,1637401912.90625
11.97,1637401912.921875
11.09,1637401912.9375
9.56,1637401912.953125
7.5,1637401912.96875
5.11,1637401912.984375
2.61,1637401913.0
0.05,1637401913.015625
-2.63,1637401913.03125
-5.56,1637401913.046875
-8.73,1637401913.0625
-11.89,1637401913.078125
-14.58,1637401913.09375
-16.33,1637401913.109375
-16.9,1637401913.125
-16.42,1637401913.140625
-15.33,1637401913.15625
-14.16,1637401913.171875
-13.24,1637401913.1875
-12.6,1637401913.203125
-12.01,1637401913.21875
-11.28,1637401913.234375
-10.36,1637401913.25
-9.41,1637401913.265625
-8.63,1637401913.28125
-8.1,1637401913.296875
-7.67,1637401913.3125
-7.1,1637401913.328125
-6.17,1637401913.34375
-4.87,1637401913.359375
-3.38,1637401913.375
-1.98,1637401913.390625
-0.94,1637401913.40625
-0.4,1637401913.421875
-0.33,1637401913.4375
-0.67,1637401913.453125
-1.32,1637401913.46875
-2.12,1637401913.484375
-2.96,1637401913.5
-3.69,1637401913.515625
-4.19,1637401913.53125
-4.42,1637401913.546875
-4.36,1637401913.5625
-4.06,1637401913.578125
-3.53,1637401913.59375
-2.71,1637401913.609375
-1.56,1637401913.625
0.0,1637401913.640625
1.92,1637401913.65625
3.99,1637401913.671875
5.94,1637401913.6875
7.48,1637401913.703125
8.42,1637401913.71875
8.77,1637401913.734375
8.64,1637401913.75
8.16,1637401913.765625
7.43,1637401913.78125
6.48,1637401913.796875
5.37,1637401913.8125
4.17,1637401913.828125
3.11,1637401913.84375
2.4,1637401913.859375
2.18,1637401913.875
2.41,1637401913.890625
2.85,1637401913.90625
3.2,1637401913.921875
3.26,1637401913.9375
2.94,1637401913.953125
2.36,1637401913.96875
1.72,1637401913.984375
1.23,1637401914.0
0.95,1637401914.015625
0.87,1637401914.03125
0.86,1637401914.046875
0.82,1637401914.0625
0.72,1637401914.078125
0.62,1637401914.09375
0.72,1637401914.109375
1.14,1637401914.125
1.96,1637401914.140625
3.06,1637401914.15625
4.24,1637401914.171875
5.3,1637401914.1875
6.14,1637401914.203125
6.82,1637401914.21875
7.55,1637401914.234375
8.45,1637401914.25
9.52,1637401914.265625
10.6,1637401914.28125
11.42,1637401914.296875
11.79,1637401914.3125
11.65,1637401914.328125
11.15,1637401914.34375
10.57,1637401914.359375
10.17,1637401914.375
10.14,1637401914.390625
10.44,1637401914.40625
10.92,1637401914.421875
11.3,1637401914.4375
11.3,1637401914.453125
10.72,1637401914.46875
9.54,1637401914.484375
7.89,1637401914.5
5.98,1637401914.515625
4.03,1637401914.53125
2.07,1637401914.546875
0.09,1637401914.5625
-1.93,1637401914.578125
-3.92,1637401914.59375
-5.66,1637401914.609375
-6.93,1637401914.625
-7.55,1637401914.640625
-7.61,1637401914.65625
-7.32,1637401914.671875
-6.99,1637401914.6875
-6.8,1637401914.703125
-6.81,1637401914.71875
-6.87,1637401914.734375
-6.82,1637401914.75
-6.53,1637401914.765625
-5.99,1637401914.78125
-5.26,1637401914.796875
-4.39,1637401914.8125
-3.41,1637401914.828125
-2.37,1637401914.84375
-1.35,1637401914.859375
-0.5,1637401914.875
0.01,1637401914.890625
0.05,1637401914.90625
-0.42,1637401914.921875
-1.29,1637401914.9375
-2.36,1637401914.953125
-3.34,1637401914.96875
-3.94,1637401914.984375
-3.92,1637401915.0
-3.16,1637401915.015625
-1.74,1637401915.03125
0.13,1637401915.046875
2.05,1637401915.0625
3.67,1637401915.078125
4.72,1637401915.09375
5.21,1637401915.109375
5.39,1637401915.125
5.57,1637401915.140625
6.0,1637401915.15625
6.65,1637401915.171875
7.29,1637401915.1875
7.64,1637401915.203125
7.55,1637401915.21875
7.09,1637401915.234375
6.52,1637401915.25
6.05,1637401915.265625
5.71,1637401915.28125
5.34,1637401915.296875
4.71,1637401915.3125
3.68,1637401915.328125
2.29,1637401915.34375
0.71,1637401915.359375
-0.88,1637401915.375
-2.38,1637401915.390625
-3.77,1637401915.40625
-5.01,1637401915.421875
-5.99,1637401915.4375
-6.55,1637401915.453125
-6.6,1637401915.46875
-6.19,1637401915.484375
-5.56,1637401915.5
-5.02,1637401915.515625
-4.74,1637401915.53125
-4.7,1637401915.546875
-4.77,1637401915.5625
-4.75,1637401915.578125
-4.6,1637401915.59375
-4.41,1637401915.609375
-4.31,1637401915.625
-4.42,1637401915.640625
-4.77,1637401915.65625
-5.29,1637401915.671875
-5.9,1637401915.6875
-6.48,1637401915.703125
-6.91,1637401915.71875
-7.09,1637401915.734375
-6.94,1637401915.75
-6.48,1637401915.765625
-5.82,1637401915.78125
-5.18,1637401915.796875
-4.67,1637401915.8125
-4.33,1637401915.828125
-4.09,1637401915.84375
-3.85,1637401915.859375
-3.61,1637401915.875
-3.43,1637401915.890625
-3.37,1637401915.90625
-3.44,1637401915.921875
-3.44,1637401915.9375
-3.17,1637401915.953125
-2.46,1637401915.96875
-1.39,1637401915.984375
-0.21,1637401916.0
0.67,1637401916.015625
0.95,1637401916.03125
0.62,1637401916.046875
-0.06,1637401916.0625
-0.64,1637401916.078125
-0.69,1637401916.09375
-0.02,1637401916.109375
1.26,1637401916.125
2.76,1637401916.140625
4.05,1637401916.15625
4.75,1637401916.171875
4.69,1637401916.1875
4.01,1637401916.203125
3.03,1637401916.21875
2.08,1637401916.234375
1.41,1637401916.25
1.08,1637401916.265625
0.95,1637401916.28125
0.82,1637401916.296875
0.5,1637401916.3125
-0.08,1637401916.328125
-0.82,1637401916.34375
-1.54,1637401916.359375
-2.04,1637401916.375
-2.21,1637401916.390625
-2.21,1637401916.40625
-2.27,1637401916.421875
-2.65,1637401916.4375
-3.45,1637401916.453125
-4.5,1637401916.46875
-5.41,1637401916.484375
-5.82,1637401916.5
-5.52,1637401916.515625
-4.6,1637401916.53125
-3.46,1637401916.546875
-2.53,1637401916.5625
-2.18,1637401916.578125
-2.48,1637401916.59375
-3.24,1637401916.609375
-4.12,1637401916.625
-4.75,1637401916.640625
-4.94,1637401916.65625
-4.61,1637401916.671875
-3.87,1637401916.6875
-2.88,1637401916.703125
-1.79,1637401916.71875
-0.72,1637401916.734375
0.25,1637401916.75
0.98,1637401916.765625
1.33,1637401916.78125
1.18,1637401916.796875
0.54,1637401916.8125
-0.33,1637401916.828125
-0.93,1637401916.84375
-0.77,1637401916.859375
0.4,1637401916.875
2.34,1637401916.890625
4.42,1637401916.90625
5.87,1637401916.921875
6.21,1637401916.9375
5.61,1637401916.953125
4.77,1637401916.96875
4.7,1637401916.984375
6.15,1637401917.0
9.23,1637401917.015625
13.45,1637401917.03125
17.87,1637401917.046875
21.54,1637401917.0625
23.76,1637401917.078125
24.22,1637401917.09375
22.94,1637401917.109375
20.11,1637401917.125
16.1,1637401917.140625
11.4,1637401917.15625
6.58,1637401917.171875
2.3,1637401917.1875
-0.89,1637401917.203125
-2.67,1637401917.21875
-3.07,1637401917.234375
-2.44,1637401917.25
-1.31,1637401917.265625
-0.22,1637401917.28125
0.45,1637401917.296875
0.6,1637401917.3125
0.35,1637401917.328125
-0.07,1637401917.34375
-0.42,1637401917.359375
-0.48,1637401917.375
-0.21,1637401917.390625
0.37,1637401917.40625
1.15,1637401917.421875
1.97,1637401917.4375
2.61,1637401917.453125
2.93,1637401917.46875
2.8,1637401917.484375
2.2,1637401917.5
1.23,1637401917.515625
0.08,1637401917.53125
-0.96,1637401917.546875
-1.64,1637401917.5625
-1.79,1637401917.578125
-1.41,1637401917.59375
-0.65,1637401917.609375
0.15,1637401917.625
0.69,1637401917.640625
0.72,1637401917.65625
0.18,1637401917.671875
-0.8,1637401917.6875
-1.98,1637401917.703125
-3.13,1637401917.71875
-4.08,1637401917.734375
-4.71,1637401917.75
-4.93,1637401917.765625
-4.74,1637401917.78125
-4.17,1637401917.796875
-3.29,1637401917.8125
-2.25,1637401917.828125
-1.16,1637401917.84375
-0.05,1637401917.859375
1.09,1637401917.875
2.33,1637401917.890625
3.58,1637401917.90625
4.72,1637401917.921875
5.51,1637401917.9375
5.82,1637401917.953125
5.69,1637401917.96875
5.27,1637401917.984375
4.72,1637401918.0
4.08,1637401918.015625
3.28,1637401918.03125
2.13,1637401918.046875
0.5,1637401918.0625
-1.55,1637401918.078125
-3.8,1637401918.09375
-5.89,1637401918.109375
-7.48,1637401918.125
-8.36,1637401918.140625
-8.52,1637401918.15625
-8.08,1637401918.171875
-7.32,1637401918.1875
-6.54,1637401918.203125
-6.03,1637401918.21875
-6.0,1637401918.234375
-6.48,1637401918.25
-7.44,1637401918.265625
-8.67,1637401918.28125
-9.9,1637401918.296875
-10.92,1637401918.3125
-11.63,1637401918.328125
-12.07,1637401918.34375
-12.38,1637401918.359375
-12.73,1637401918.375
-13.23,1637401918.390625
-13.81,1637401918.40625
-14.23,1637401918.421875
-14.21,1637401918.4375
-13.48,1637401918.453125
-11.96,1637401918.46875
-9.74,1637401918.484375
-7.14,1637401918.5
-4.51,1637401918.515625
-2.11,1637401918.53125
-0.06,1637401918.546875
1.69,1637401918.5625
3.22,1637401918.578125
4.62,1637401918.59375
5.8,1637401918.609375
6.62,1637401918.625
6.91,1637401918.640625
6.62,1637401918.65625
5.89,1637401918.671875
4.88,1637401918.6875
3.9,1637401918.703125
3.12,1637401918.71875
2.61,1637401918.734375
2.36,1637401918.75
2.26,1637401918.765625
2.24,1637401918.78125
2.18,1637401918.796875
2.04,1637401918.8125
1.77,1637401918.828125
1.32,1637401918.84375
0.64,1637401918.859375
-0.24,1637401918.875
-1.29,1637401918.890625
-2.38,1637401918.90625
-3.31,1637401918.921875
-3.92,1637401918.9375
-4.04,1637401918.953125
-3.65,1637401918.96875
-2.8,1637401918.984375
-1.73,1637401919.0
-0.7,1637401919.015625
0.01,1637401919.03125
0.23,1637401919.046875
-0.0,1637401919.0625
-0.36,1637401919.078125
-0.43,1637401919.09375
0.17,1637401919.109375
1.57,1637401919.125
3.58,1637401919.140625
5.72,1637401919.15625
7.54,1637401919.171875
8.78,1637401919.1875
9.52,1637401919.203125
10.03,1637401919.21875
10.52,1637401919.234375
11.04,1637401919.25
11.39,1637401919.265625
11.33,1637401919.28125
10.8,1637401919.296875
9.95,1637401919.3125
9.06,1637401919.328125
8.47,1637401919.34375
8.31,1637401919.359375
8.46,1637401919.375
8.65,1637401919.390625
8.58,1637401919.40625
8.01,1637401919.421875
6.92,1637401919.4375
5.49,1637401919.453125
4.06,1637401919.46875
2.96,1637401919.484375
2.44,1637401919.5
2.56,1637401919.515625
3.14,1637401919.53125
3.82,1637401919.546875
4.24,1637401919.5625
4.15,1637401919.578125
3.54,1637401919.59375
2.57,1637401919.609375
1.49,1637401919.625
0.53,1637401919.640625
-0.18,1637401919.65625
-0.67,1637401919.671875
-0.97,1637401919.6875
-1.09,1637401919.703125
-1.01,1637401919.71875
-0.72,1637401919.734375
-0.18,1637401919.75
0.53,1637401919.765625
1.32,1637401919.78125
2.06,1637401919.796875
2.64,1637401919.8125
2.95,1637401919.828125
2.91,1637401919.84375
2.54,1637401919.859375
1.92,1637401919.875
1.24,1637401919.890625
0.73,1637401919.90625
0.56,1637401919.921875
0.77,1637401919.9375
1.24,1637401919.953125
1.71,1637401919.96875
1.9,1637401919.984375
1.67,1637401920.0
1.06,1637401920.015625
0.27,1637401920.03125
-0.48,1637401920.046875
-1.04,1637401920.0625
-1.46,1637401920.078125
-1.93,1637401920.09375
-2.64,1637401920.109375
-3.74,1637401920.125
-5.2,1637401920.140625
-6.87,1637401920.15625
-8.54,1637401920.171875
-10.01,1637401920.1875
-11.17,1637401920.203125
-11.86,1637401920.21875
-12.0,1637401920.234375
-11.5,1637401920.25
-10.48,1637401920.265625
-9.07,1637401920.28125
-7.57,1637401920.296875
-6.26,1637401920.3125
-5.28,1637401920.328125
-4.73,1637401920.34375
-4.56,1637401920.359375
-4.77,1637401920.375
-5.28,1637401920.390625
-5.95,1637401920.40625
-6.62,1637401920.421875
-7.08,1637401920.4375
-7.25,1637401920.453125
-7.12,1637401920.46875
-6.85,1637401920.484375
-6.49,1637401920.5
-6.02,1637401920.515625
-5.27,1637401920.53125
-4.07,1637401920.546875
-2.41,1637401920.5625
-0.47,1637401920.578125
1.35,1637401920.59375
2.7,1637401920.609375
3.32,1637401920.625
3.2,1637401920.640625
2.57,1637401920.65625
1.72,1637401920.671875
0.91,1637401920.6875
0.26,1637401920.703125
-0.19,1637401920.71875
-0.5,1637401920.734375
-0.72,1637401920.75
-0.89,1637401920.765625
-1.01,1637401920.78125
-1.08,1637401920.796875
-1.17,1637401920.8125
-1.34,1637401920.828125
-1.69,1637401920.84375
-2.19,1637401920.859375
-2.74,1637401920.875
-3.12,1637401920.890625
-3.14,1637401920.90625
-2.78,1637401920.921875
-2.19,1637401920.9375
-1.61,1637401920.953125
-1.23,1637401920.96875
-1.03,1637401920.984375
-0.79,1637401921.0
-0.27,1637401921.015625
0.61,1637401921.03125
1.64,1637401921.046875
2.43,1637401921.0625
2.58,1637401921.078125
1.98,1637401921.09375
0.87,1637401921.109375
-0.33,1637401921.125
-1.19,1637401921.140625
-1.56,1637401921.15625
-1.56,1637401921.171875
-1.46,1637401921.1875
-1.42,1637401921.203125
-1.45,1637401921.21875
-1.34,1637401921.234375
-0.92,1637401921.25
-0.2,1637401921.265625
0.58,1637401921.28125
1.07,1637401921.296875
1.04,1637401921.3125
0.47,1637401921.328125
-0.35,1637401921.34375
-1.01,1637401921.359375
-1.19,1637401921.375
-0.83,1637401921.390625
-0.09,1637401921.40625
0.71,1637401921.421875
1.28,1637401921.4375
1.49,1637401921.453125
1.41,1637401921.46875
1.21,1637401921.484375
1.07,1637401921.5
1.16,1637401921.515625
1.61,1637401921.53125
2.52,1637401921.546875
3.92,1637401921.5625
5.71,1637401921.578125
7.7,1637401921.59375
9.57,1637401921.609375
11.03,1637401921.625
11.91,1637401921.640625
12.12,1637401921.65625
11.76,1637401921.671875
10.9,1637401921.6875
9.63,1637401921.703125
8.06,1637401921.71875
6.3,1637401921.734375
4.5,1637401921.75
2.79,1637401921.765625
1.24,1637401921.78125
-0.08,1637401921.796875
-1.11,1637401921.8125
-1.75,1637401921.828125
-1.89,1637401921.84375
-1.49,1637401921.859375
-0.71,1637401921.875
0.11,1637401921.890625
0.61,1637401921.90625
0.55,1637401921.921875
-0.02,1637401921.9375
-0.82,1637401921.953125
-1.53,1637401921.96875
-1.99,1637401921.984375
-2.25,1637401922.0
-2.46,1637401922.015625
-2.75,1637401922.03125
-3.09,1637401922.046875
-3.34,1637401922.0625
-3.36,1637401922.078125
-3.09,1637401922.09375
-2.49,1637401922.109375
-1.51,1637401922.125
-0.03,1637401922.140625
2.03,1637401922.15625
4.6,1637401922.171875
7.43,1637401922.1875
10.1,1637401922.203125
12.29,1637401922.21875
13.87,1637401922.234375
14.99,1637401922.25
15.79,1637401922.265625
16.32,1637401922.28125
16.42,1637401922.296875
15.88,1637401922.3125
14.58,1637401922.328125
12.64,1637401922.34375
10.44,1637401922.359375
8.28,1637401922.375
6.34,1637401922.390625
4.42,1637401922.40625
2.28,1637401922.421875
-0.26,1637401922.4375
-3.12,1637401922.453125
-5.96,1637401922.46875
-8.38,1637401922.484375
-10.14,1637401922.5
-11.24,1637401922.515625
-11.87,1637401922.53125
-12.29,1637401922.546875
-12.66,1637401922.5625
-12.99,1637401922.578125
-13.2,1637401922.59375
-13.18,1637401922.609375
-12.9,1637401922.625
-12.35,1637401922.640625
-11.63,1637401922.65625
-10.81,1637401922.671875
-9.96,1637401922.6875
-9.06,1637401922.703125
-8.05,1637401922.71875
-6.84,1637401922.734375
-5.37,1637401922.75
-3.65,1637401922.765625
-1.86,1637401922.78125
-0.25,1637401922.796875
1.04,1637401922.8125
1.96,1637401922.828125
2.71,1637401922.84375
3.43,1637401922.859375
4.26,1637401922.875
5.07,1637401922.890625
5.59,1637401922.90625
5.55,1637401922.921875
4.83,1637401922.9375
3.53,1637401922.953125
1.86,1637401922.96875
0.12,1637401922.984375
-1.53,1637401923.0
-2.96,1637401923.015625
-4.11,1637401923.03125
-4.95,1637401923.046875
-5.42,1637401923.0625
-5.63,1637401923.078125
-5.74,1637401923.09375
-5.97,1637401923.109375
-6.5,1637401923.125
-7.37,1637401923.140625
-8.43,1637401923.15625
-9.44,1637401923.171875
-10.17,1637401923.1875
-10.48,1637401923.203125
-10.33,1637401923.21875
-9.78,1637401923.234375
-8.9,1637401923.25
-7.75,1637401923.265625
-6.45,1637401923.28125
-5.17,1637401923.296875
-4.1,1637401923.3125
-3.43,1637401923.328125
-3.12,1637401923.34375
-3.02,1637401923.359375
-2.85,1637401923.375
-2.37,1637401923.390625
-1.58,1637401923.40625
-0.67,1637401923.421875
0.08,1637401923.4375
0.47,1637401923.453125
0.54,1637401923.46875
0.52,1637401923.484375
0.63,1637401923.5
0.96,1637401923.515625
1.4,1637401923.53125
1.7,1637401923.546875
1.71,1637401923.5625
1.41,1637401923.578125
0.95,1637401923.59375
0.51,1637401923.609375
0.15,1637401923.625
-0.13,1637401923.640625
-0.33,1637401923.65625
-0.39,1637401923.671875
-0.18,1637401923.6875
0.4,1637401923.703125
1.38,1637401923.71875
2.57,1637401923.734375
3.68,1637401923.75
4.42,1637401923.765625
4.63,1637401923.78125
4.29,1637401923.796875
3.53,1637401923.8125
2.57,1637401923.828125
1.66,1637401923.84375
0.99,1637401923.859375
0.64,1637401923.875
0.6,1637401923.890625
0.71,1637401923.90625
0.72,1637401923.921875
0.41,1637401923.9375
-0.34,1637401923.953125
-1.46,1637401923.96875
-2.75,1637401923.984375
-3.91,1637401924.0
-4.69,1637401924.015625
-4.84,1637401924.03125
-4.3,1637401924.046875
-3.08,1637401924.0625
-1.31,1637401924.078125
0.72,1637401924.09375
2.65,1637401924.109375
4.11,1637401924.125
4.86,1637401924.140625
4.86,1637401924.15625
4.3,1637401924.171875
3.51,1637401924.1875
2.85,1637401924.203125
2.57,1637401924.21875
2.74,1637401924.234375
3.33,1637401924.25
4.19,1637401924.265625
5.16,1637401924.28125
6.07,1637401924.296875
6.72,1637401924.3125
6.95,1637401924.328125
6.63,1637401924.34375
5.81,1637401924.359375
4.61,1637401924.375
3.32,1637401924.390625
2.21,1637401924.40625
1.45,1637401924.421875
1.12,1637401924.4375
1.15,1637401924.453125
1.4,1637401924.46875
1.75,1637401924.484375
2.12,1637401924.5
2.45,1637401924.515625
2.71,1637401924.53125
2.81,1637401924.546875
2.64,1637401924.5625
2.12,1637401924.578125
1.25,1637401924.59375
0.21,1637401924.609375
-0.69,1637401924.625
-1.06,1637401924.640625
-0.67,1637401924.65625
0.5,1637401924.671875
2.12,1637401924.6875
3.72,1637401924.703125
4.81,1637401924.71875
5.18,1637401924.734375
4.86,1637401924.75
4.13,1637401924.765625
3.24,1637401924.78125
2.31,1637401924.796875
1.33,1637401924.8125
0.23,1637401924.828125
-0.95,1637401924.84375
-2.03,1637401924.859375
-2.83,1637401924.875
-3.15,1637401924.890625
-3.04,1637401924.90625
-2.61,1637401924.921875
-2.05,1637401924.9375
-1.36,1637401924.953125
-0.39,1637401924.96875
1.2,1637401924.984375
3.73,1637401925.0
7.31,1637401925.015625
11.71,1637401925.03125
16.31,1637401925.046875
20.25,1637401925.0625
22.67,1637401925.078125
23.13,1637401925.09375
21.71,1637401925.109375
19.0,1637401925.125
15.88,1637401925.140625
13.2,1637401925.15625
11.5,1637401925.171875
10.86,1637401925.1875
10.94,1637401925.203125
11.15,1637401925.21875
10.9,1637401925.234375
9.8,1637401925.25
7.87,1637401925.265625
5.48,1637401925.28125
3.24,1637401925.296875
1.76,1637401925.3125
1.32,1637401925.328125
1.83,1637401925.34375
2.82,1637401925.359375
3.76,1637401925.375
4.29,1637401925.390625
4.27,1637401925.40625
3.78,1637401925.421875
2.89,1637401925.4375
1.59,1637401925.453125
-0.15,1637401925.46875
-2.3,1637401925.484375
-4.66,1637401925.5
-6.94,1637401925.515625
-8.87,1637401925.53125
-10.44,1637401925.546875
-11.76,1637401925.5625
-13.07,1637401925.578125
-14.48,1637401925.59375
-15.92,1637401925.609375
-17.24,1637401925.625
-18.32,1637401925.640625
-19.23,1637401925.65625
-20.16,1637401925.671875
-21.26,1637401925.6875
-22.49,1637401925.703125
-23.59,1637401925.71875
-24.23,1637401925.734375
-24.24,1637401925.75
-23.74,1637401925.765625
-23.09,1637401925.78125
-22.65,1637401925.796875
-22.53,1637401925.8125
-22.49,1637401925.828125
-22.07,1637401925.84375
-20.79,1637401925.859375
-18.44,1637401925.875
-15.08,1637401925.890625
-11.04,1637401925.90625
-6.75,1637401925.921875
-2.59,1637401925.9375
1.13,1637401925.953125
4.19,1637401925.96875
6.47,1637401925.984375
7.92,1637401926.0
8.64,1637401926.015625
8.78,1637401926.03125
8.52,1637401926.046875
8.07,1637401926.0625
7.56,1637401926.078125
7.2,1637401926.09375
7.18,1637401926.109375
7.66,1637401926.125
8.62,1637401926.140625
9.83,1637401926.15625
11.03,1637401926.171875
11.91,1637401926.1875
12.34,1637401926.203125
12.29,1637401926.21875
11.79,1637401926.234375
10.84,1637401926.25
9.37,1637401926.265625
7.3,1637401926.28125
4.65,1637401926.296875
1.56,1637401926.3125
-1.78,1637401926.328125
-5.23,1637401926.34375
-8.76,1637401926.359375
-12.32,1637401926.375
-15.73,1637401926.390625
-18.6,1637401926.40625
-20.45,1637401926.421875
-20.93,1637401926.4375
-20.07,1637401926.453125
-18.25,1637401926.46875
-16.03,1637401926.484375
-13.87,1637401926.5
-11.86,1637401926.515625
-9.85,1637401926.53125
-7.7,1637401926.546875
-5.4,1637401926.5625
-3.26,1637401926.578125
-1.64,1637401926.59375
-0.72,1637401926.609375
-0.32,1637401926.625
-0.06,1637401926.640625
0.48,1637401926.65625
1.41,1637401926.671875
2.54,1637401926.6875
3.47,1637401926.703125
3.87,1637401926.71875
3.62,1637401926.734375
2.9,1637401926.75
1.99,1637401926.765625
1.17,1637401926.78125
0.6,1637401926.796875
0.23,1637401926.8125
-0.13,1637401926.828125
-0.74,1637401926.84375
-1.89,1637401926.859375
-3.82,1637401926.875
-6.61,1637401926.890625
-10.11,1637401926.90625
-13.94,1637401926.921875
-17.62,1637401926.9375
-20.71,1637401926.953125
-23.04,1637401926.96875
-24.69,1637401926.984375
-26.13,1637401927.0
-28.04,1637401927.015625
-31.15,1637401927.03125
-36.1,1637401927.046875
-43.16,1637401927.0625
-52.15,1637401927.078125
-62.38,1637401927.09375
-72.71,1637401927.109375
-81.91,1637401927.125
-88.75,1637401927.140625
-92.41,1637401927.15625
-92.64,1637401927.171875
-89.78,1637401927.1875
-84.81,1637401927.203125
-78.98,1637401927.21875
-73.45,1637401927.234375
-68.96,1637401927.25
-65.48,1637401927.265625
-62.32,1637401927.28125
-58.33,1637401927.296875
-52.35,1637401927.3125
-43.55,1637401927.328125
-31.59,1637401927.34375
-16.67,1637401927.359375
0.52,1637401927.375
18.85,1637401927.390625
36.88,1637401927.40625
53.01,1637401927.421875
65.83,1637401927.4375
74.43,1637401927.453125
78.65,1637401927.46875
79.06,1637401927.484375
76.74,1637401927.5
72.93,1637401927.515625
68.61,1637401927.53125
64.51,1637401927.546875
61.02,1637401927.5625
58.34,1637401927.578125
56.5,1637401927.59375
55.46,1637401927.609375
54.98,1637401927.625
54.72,1637401927.640625
54.35,1637401927.65625
53.61,1637401927.671875
52.41,1637401927.6875
50.81,1637401927.703125
48.93,1637401927.71875
47.0,1637401927.734375
45.17,1637401927.75
43.51,1637401927.765625
41.91,1637401927.78125
40.22,1637401927.796875
38.21,1637401927.8125
35.86,1637401927.828125
33.3,1637401927.84375
30.82,1637401927.859375
28.64,1637401927.875
26.86,1637401927.890625
25.36,1637401927.90625
23.92,1637401927.921875
22.35,1637401927.9375
20.64,1637401927.953125
18.94,1637401927.96875
17.48,1637401927.984375
16.43,1637401928.0
15.78,1637401928.015625
15.4,1637401928.03125
15.13,1637401928.046875
14.97,1637401928.0625
14.99,1637401928.078125
15.39,1637401928.09375
16.35,1637401928.109375
17.87,1637401928.125
19.86,1637401928.140625
22.01,1637401928.15625
24.02,1637401928.171875
25.69,1637401928.1875
26.93,1637401928.203125
27.84,1637401928.21875
28.56,1637401928.234375
29.23,1637401928.25
29.88,1637401928.265625
30.43,1637401928.28125
30.76,1637401928.296875
30.73,1637401928.3125
30.27,1637401928.328125
29.34,1637401928.34375
27.96,1637401928.359375
26.15,1637401928.375
23.92,1637401928.390625
21.26,1637401928.40625
18.14,1637401928.421875
14.53,1637401928.4375
10.43,1637401928.453125
5.97,1637401928.46875
1.31,1637401928.484375
-3.27,1637401928.5
-7.49,1637401928.515625
-11.17,1637401928.53125
-14.21,1637401928.546875
-16.57,1637401928.5625
-18.31,1637401928.578125
-19.56,1637401928.59375
-20.42,1637401928.609375
-21.05,1637401928.625
-21.54,1637401928.640625
-21.93,1637401928.65625
-22.14,1637401928.671875
-21.99,1637401928.6875
-21.25,1637401928.703125
-19.77,1637401928.71875
-17.56,1637401928.734375
-14.8,1637401928.75
-11.83,1637401928.765625
-9.05,1637401928.78125
-6.78,1637401928.796875
-5.18,1637401928.8125
-4.31,1637401928.828125
-4.01,1637401928.84375
-4.02,1637401928.859375
-4.02,1637401928.875
-3.67,1637401928.890625
-2.72,1637401928.90625
-1.09,1637401928.921875
1.0,1637401928.9375
3.18,1637401928.953125
4.97,1637401928.96875
6.03,1637401928.984375
6.3,1637401929.0
6.02,1637401929.015625
5.65,1637401929.03125
5.54,1637401929.046875
5.91,1637401929.0625
6.67,1637401929.078125
7.58,1637401929.09375
8.34,1637401929.109375
8.79,1637401929.125
8.85,1637401929.140625
8.51,1637401929.15625
7.82,1637401929.171875
6.82,1637401929.1875
5.61,1637401929.203125
4.33,1637401929.21875
3.1,1637401929.234375
1.96,1637401929.25
0.81,1637401929.265625
-0.45,1637401929.28125
-1.87,1637401929.296875
-3.31,1637401929.3125
-4.64,1637401929.328125
-5.72,1637401929.34375
-6.65,1637401929.359375
-7.6,1637401929.375
-8.75,1637401929.390625
-10.04,1637401929.40625
-11.31,1637401929.421875
-12.33,1637401929.4375
-13.01,1637401929.453125
-13.35,1637401929.46875
-13.53,1637401929.484375
-13.63,1637401929.5
-13.68,1637401929.515625
-13.66,1637401929.53125
-13.65,1637401929.546875
-13.7,1637401929.5625
-13.79,1637401929.578125
-13.84,1637401929.59375
-13.58,1637401929.609375
-12.8,1637401929.625
-11.56,1637401929.640625
-10.18,1637401929.65625
-9.25,1637401929.671875
-9.22,1637401929.6875
-10.22,1637401929.703125
-11.92,1637401929.71875
-13.64,1637401929.734375
-14.71,1637401929.75
-14.73,1637401929.765625
-13.73,1637401929.78125
-12.07,1637401929.796875
-10.24,1637401929.8125
-8.71,1637401929.828125
-7.62,1637401929.84375
-6.95,1637401929.859375
-6.56,1637401929.875
-6.39,1637401929.890625
-6.46,1637401929.90625
-6.88,1637401929.921875
-7.65,1637401929.9375
-8.64,1637401929.953125
-9.51,1637401929.96875
-9.86,1637401929.984375
-9.38,1637401930.0
-7.97,1637401930.015625
-5.82,1637401930.03125
-3.4,1637401930.046875
-1.24,1637401930.0625
0.24,1637401930.078125
0.8,1637401930.09375
0.51,1637401930.109375
-0.34,1637401930.125
-1.39,1637401930.140625
-2.38,1637401930.15625
-3.21,1637401930.171875
-3.95,1637401930.1875
-4.68,1637401930.203125
-5.36,1637401930.21875
-5.9,1637401930.234375
-6.14,1637401930.25
-5.96,1637401930.265625
-5.37,1637401930.28125
-4.43,1637401930.296875
-3.14,1637401930.3125
-1.48,1637401930.328125
0.59,1637401930.34375
2.94,1637401930.359375
5.18,1637401930.375
6.73,1637401930.390625
7.02,1637401930.40625
5.8,1637401930.421875
3.26,1637401930.4375
0.01,1637401930.453125
-3.21,1637401930.46875
-5.81,1637401930.484375
-7.53,1637401930.5
-8.39,1637401930.515625
-8.55,1637401930.53125
-8.1,1637401930.546875
-7.08,1637401930.5625
-5.54,1637401930.578125
-3.64,1637401930.59375
-1.69,1637401930.609375
-0.11,1637401930.625
0.81,1637401930.640625
1.03,1637401930.65625
0.76,1637401930.671875
0.31,1637401930.6875
-0.09,1637401930.703125
-0.45,1637401930.71875
-0.97,1637401930.734375
-1.85,1637401930.75
-3.1,1637401930.765625
-4.46,1637401930.78125
-5.46,1637401930.796875
-5.56,1637401930.8125
-4.49,1637401930.828125
-2.34,1637401930.84375
0.46,1637401930.859375
3.26,1637401930.875
5.46,1637401930.890625
6.73,1637401930.90625
7.12,1637401930.921875
6.88,1637401930.9375
6.32,1637401930.953125
5.61,1637401930.96875
4.74,1637401930.984375
3.56,1637401931.0
2.0,1637401931.015625
0.14,1637401931.03125
-1.78,1637401931.046875
-3.47,1637401931.0625
-4.82,1637401931.078125
-5.91,1637401931.09375
-6.97,1637401931.109375
-8.19,1637401931.125
-9.52,1637401931.140625
-10.69,1637401931.15625
-11.24,1637401931.171875
-10.81,1637401931.1875
-9.29,1637401931.203125
-6.98,1637401931.21875
-4.39,1637401931.234375
-2.21,1637401931.25
-0.94,1637401931.265625
-0.77,1637401931.28125
-1.49,1637401931.296875
-2.55,1637401931.3125
-3.25,1637401931.328125
-3.07,1637401931.34375
-1.8,1637401931.359375
0.34,1637401931.375
2.85,1637401931.390625
5.17,1637401931.40625
6.96,1637401931.421875
8.12,1637401931.4375
8.77,1637401931.453125
9.08,1637401931.46875
9.14,1637401931.484375
8.93,1637401931.5
8.4,1637401931.515625
7.58,1637401931.53125
6.65,1637401931.546875
5.87,1637401931.5625
5.49,1637401931.578125
5.6,1637401931.59375
6.03,1637401931.609375
6.44,1637401931.625
6.5,1637401931.640625
6.02,1637401931.65625
5.0,1637401931.671875
3.65,1637401931.6875
2.19,1637401931.703125
0.86,1637401931.71875
-0.26,1637401931.734375
-1.14,1637401931.75
-1.82,1637401931.765625
-2.31,1637401931.78125
-2.58,1637401931.796875
-2.6,1637401931.8125
-2.37,1637401931.828125
-1.93,1637401931.84375
-1.36,1637401931.859375
-0.72,1637401931.875
-0.07,1637401931.890625
0.6,1637401931.90625
1.31,1637401931.921875
2.11,1637401931.9375
2.98,1637401931.953125
3.86,1637401931.96875
4.59,1637401931.984375
4.98,1637401932.0
4.76,1637401932.015625
3.84,1637401932.03125
2.25,1637401932.046875
0.29,1637401932.0625
-1.7,1637401932.078125
-3.25,1637401932.09375
-4.07,1637401932.109375
-4.06,1637401932.125
-3.25,1637401932.140625
-1.85,1637401932.15625
-0.07,1637401932.171875
1.82,1637401932.1875
3.51,1637401932.203125
4.75,1637401932.21875
5.38,1637401932.234375
5.47,1637401932.25
5.3,1637401932.265625
5.43,1637401932.28125
6.4,1637401932.296875
8.62,1637401932.3125
12.14,1637401932.328125
16.5,1637401932.34375
20.9,1637401932.359375
24.37,1637401932.375
26.02,1637401932.390625
25.3,1637401932.40625
22.18,1637401932.421875
17.1,1637401932.4375
10.88,1637401932.453125
4.47,1637401932.46875
-1.29,1637401932.484375
-5.72,1637401932.5
-8.57,1637401932.515625
-9.92,1637401932.53125
-10.11,1637401932.546875
-9.59,1637401932.5625
-8.84,1637401932.578125
-8.18,1637401932.59375
-7.74,1637401932.609375
-7.43,1637401932.625
-7.1,1637401932.640625
-6.61,1637401932.65625
-5.89,1637401932.671875
-4.99,1637401932.6875
-4.05,1637401932.703125
-3.25,1637401932.71875
-2.65,1637401932.734375
-2.29,1637401932.75
-2.11,1637401932.765625
-2.06,1637401932.78125
-2.14,1637401932.796875
-2.38,1637401932.8125
-2.86,1637401932.828125
-3.64,1637401932.84375
-4.66,1637401932.859375
-5.81,1637401932.875
-6.89,1637401932.890625
-7.69,1637401932.90625
-8.02,1637401932.921875
-7.79,1637401932.9375
-7.03,1637401932.953125
-5.91,1637401932.96875
-4.76,1637401932.984375
-3.97,1637401933.0
-3.9,1637401933.015625
-4.74,1637401933.03125
-6.39,1637401933.046875
-8.46,1637401933.0625
-10.38,1637401933.078125
-11.56,1637401933.09375
-11.62,1637401933.109375
-10.53,1637401933.125
-8.63,1637401933.140625
-6.55,1637401933.15625
-4.94,1637401933.171875
-4.24,1637401933.1875
-4.62,1637401933.203125
-5.88,1637401933.21875
-7.63,1637401933.234375
-9.34,1637401933.25
-10.61,1637401933.265625
-11.25,1637401933.28125
-11.3,1637401933.296875
-10.94,1637401933.3125
-10.39,1637401933.328125
-9.82,1637401933.34375
-9.25,1637401933.359375
-8.62,1637401933.375
-7.79,1637401933.390625
-6.69,1637401933.40625
-5.37,1637401933.421875
-3.89,1637401933.4375
-2.4,1637401933.453125
-1.0,1637401933.46875
0.31,1637401933.484375
1.51,1637401933.5
2.54,1637401933.515625
3.26,1637401933.53125
3.47,1637401933.546875
3.07,1637401933.5625
2.07,1637401933.578125
0.76,1637401933.59375
-0.43,1637401933.609375
-1.08,1637401933.625
-0.89,1637401933.640625
0.11,1637401933.65625
1.62,1637401933.671875
3.22,1637401933.6875
4.46,1637401933.703125
5.14,1637401933.71875
5.18,1637401933.734375
4.77,1637401933.75
4.14,1637401933.765625
3.6,1637401933.78125
3.4,1637401933.796875
3.8,1637401933.8125
4.89,1637401933.828125
6.64,1637401933.84375
8.84,1637401933.859375
11.16,1637401933.875
13.19,1637401933.890625
14.68,1637401933.90625
15.51,1637401933.921875
15.78,1637401933.9375
15.69,1637401933.953125
15.48,1637401933.96875
15.34,1637401933.984375
15.39,1637401934.0
15.62,1637401934.015625
15.95,1637401934.03125
16.28,1637401934.046875
16.49,1637401934.0625
16.47,1637401934.078125
16.08,1637401934.09375
15.19,1637401934.109375
13.72,1637401934.125
11.66,1637401934.140625
9.14,1637401934.15625
6.34,1637401934.171875
3.51,1637401934.1875
0.9,1637401934.203125
-1.27,1637401934.21875
-2.86,1637401934.234375
-3.9,1637401934.25
-4.56,1637401934.265625
-5.08,1637401934.28125
-5.72,1637401934.296875
-6.64,1637401934.3125
-7.83,1637401934.328125
-9.19,1637401934.34375
-10.5,1637401934.359375
-11.58,1637401934.375
-12.21,1637401934.390625
-12.3,1637401934.40625
-11.87,1637401934.421875
-10.98,1637401934.4375
-9.88,1637401934.453125
-8.82,1637401934.46875
-8.04,1637401934.484375
-7.57,1637401934.5
-7.3,1637401934.515625
-6.98,1637401934.53125
-6.51,1637401934.546875
-5.97,1637401934.5625
-5.61,1637401934.578125
-5.69,1637401934.59375
-6.22,1637401934.609375
-6.99,1637401934.625
-7.6,1637401934.640625
-7.75,1637401934.65625
-7.36,1637401934.671875
-6.66,1637401934.6875
-6.02,1637401934.703125
-5.71,1637401934.71875
-5.81,1637401934.734375
-6.19,1637401934.75
-6.61,1637401934.765625
-6.87,1637401934.78125
-6.94,1637401934.796875
-6.81,1637401934.8125
-6.61,1637401934.828125
-6.41,1637401934.84375
-6.25,1637401934.859375
-6.15,1637401934.875
-6.07,1637401934.890625
-5.99,1637401934.90625
-5.88,1637401934.921875
-5.74,1637401934.9375
-5.56,1637401934.953125
-5.33,1637401934.96875
-4.96,1637401934.984375
-4.3,1637401935.0
-3.24,1637401935.015625
-1.74,1637401935.03125
0.03,1637401935.046875
1.79,1637401935.0625
3.24,1637401935.078125
4.23,1637401935.09375
4.74,1637401935.109375
4.92,1637401935.125
4.83,1637401935.140625
4.46,1637401935.15625
3.67,1637401935.171875
2.4,1637401935.1875
0.73,1637401935.203125
-1.0,1637401935.21875
-2.35,1637401935.234375
-2.97,1637401935.25
-2.74,1637401935.265625
-1.84,1637401935.28125
-0.6,1637401935.296875
0.62,1637401935.3125
1.54,1637401935.328125
1.99,1637401935.34375
1.92,1637401935.359375
1.38,1637401935.375
0.48,1637401935.390625
-0.51,1637401935.40625
-1.35,1637401935.421875
-1.88,1637401935.4375
-2.07,1637401935.453125
-2.04,1637401935.46875
-1.9,1637401935.484375
-1.72,1637401935.5
-1.52,1637401935.515625
-1.28,1637401935.53125
-1.1,1637401935.546875
-1.17,1637401935.5625
-1.72,1637401935.578125
-2.83,1637401935.59375
-4.36,1637401935.609375
-5.94,1637401935.625
-7.1,1637401935.640625
-7.44,1637401935.65625
-6.87,1637401935.671875
-5.6,1637401935.6875
-4.06,1637401935.703125
-2.78,1637401935.71875
-2.11,1637401935.734375
-2.08,1637401935.75
-2.45,1637401935.765625
-2.82,1637401935.78125
-2.79,1637401935.796875
-2.13,1637401935.8125
-0.87,1637401935.828125
0.8,1637401935.84375
2.52,1637401935.859375
4.01,1637401935.875
5.07,1637401935.890625
5.73,1637401935.90625
6.16,1637401935.921875
6.65,1637401935.9375
7.4,1637401935.953125
8.46,1637401935.96875
9.67,1637401935.984375
10.81,1637401936.0
11.69,1637401936.015625
12.22,1637401936.03125
12.44,1637401936.046875
12.44,1637401936.0625
12.23,1637401936.078125
11.82,1637401936.09375
11.17,1637401936.109375
10.35,1637401936.125
9.55,1637401936.140625
8.95,1637401936.15625
8.65,1637401936.171875
8.6,1637401936.1875
8.67,1637401936.203125
8.74,1637401936.21875
8.76,1637401936.234375
8.66,1637401936.25
8.42,1637401936.265625
7.9,1637401936.28125
7.12,1637401936.296875
6.12,1637401936.3125
5.07,1637401936.328125
4.18,1637401936.34375
3.53,1637401936.359375
3.12,1637401936.375
2.86,1637401936.390625
2.72,1637401936.40625
2.68,1637401936.421875
2.74,1637401936.4375
2.8,1637401936.453125
2.64,1637401936.46875
1.95,1637401936.484375
0.63,1637401936.5
-1.23,1637401936.515625
-3.29,1637401936.53125
-5.18,1637401936.546875
-6.64,1637401936.5625
-7.68,1637401936.578125
-8.41,1637401936.59375
-8.87,1637401936.609375
-9.07,1637401936.625
-8.96,1637401936.640625
-8.64,1637401936.65625
-8.42,1637401936.671875
-8.67,1637401936.6875
-9.63,1637401936.703125
-11.18,1637401936.71875
-12.82,1637401936.734375
-13.95,1637401936.75
-14.15,1637401936.765625
-13.39,1637401936.78125
-11.95,1637401936.796875
-10.21,1637401936.8125
-8.41,1637401936.828125
-6.67,1637401936.84375
-4.89,1637401936.859375
-3.06,1637401936.875
-1.09,1637401936.890625
1.07,1637401936.90625
3.57,1637401936.921875
6.51,1637401936.9375
9.83,1637401936.953125
13.28,1637401936.96875
16.42,1637401936.984375
18.87,1637401937.0
20.41,1637401937.015625
21.17,1637401937.03125
21.44,1637401937.046875
21.53,1637401937.0625
21.52,1637401937.078125
21.37,1637401937.09375
20.92,1637401937.109375
20.16,1637401937.125
19.19,1637401937.140625
18.13,1637401937.15625
16.98,1637401937.171875
15.54,1637401937.1875
13.49,1637401937.203125
10.68,1637401937.21875
7.22,1637401937.234375
3.5,1637401937.25
-0.03,1637401937.265625
-2.9,1637401937.28125
-4.89,1637401937.296875
-5.97,1637401937.3125
-6.35,1637401937.328125
-6.34,1637401937.34375
-6.27,1637401937.359375
-6.43,1637401937.375
-6.87,1637401937.390625
-7.5,1637401937.40625
-8.01,1637401937.421875
-8.19,1637401937.4375
-7.91,1637401937.453125
-7.32,1637401937.46875
-6.73,1637401937.484375
-6.43,1637401937.5
-6.5,1637401937.515625
-6.75,1637401937.53125
-6.96,1637401937.546875
-6.9,1637401937.5625
-6.59,1637401937.578125
-6.1,1637401937.59375
-5.49,1637401937.609375
-4.79,1637401937.625
-4.05,1637401937.640625
-3.4,1637401937.65625
-3.04,1637401937.671875
-3.1,1637401937.6875
-3.51,1637401937.703125
-3.91,1637401937.71875
-3.84,1637401937.734375
-2.97,1637401937.75
-1.26,1637401937.765625
1.0,1637401937.78125
3.35,1637401937.796875
5.38,1637401937.8125
6.81,1637401937.828125
7.47,1637401937.84375
7.27,1637401937.859375
6.15,1637401937.875
4.07,1637401937.890625
1.28,1637401937.90625
-1.78,1637401937.921875
-4.62,1637401937.9375
-6.89,1637401937.953125
-8.56,1637401937.96875
-9.78,1637401937.984375
-10.82,1637401938.0
-11.85,1637401938.015625
-12.82,1637401938.03125
-13.56,1637401938.046875
-13.96,1637401938.0625
-14.02,1637401938.078125
-13.86,1637401938.09375
-13.67,1637401938.109375
-13.53,1637401938.125
-13.34,1637401938.140625
-12.9,1637401938.15625
-12.03,1637401938.171875
-10.63,1637401938.1875
-8.75,1637401938.203125
-6.57,1637401938.21875
-4.38,1637401938.234375
-2.52,1637401938.25
-1.23,1637401938.265625
-0.56,1637401938.28125
-0.34,1637401938.296875
-0.22,1637401938.3125
0.18,1637401938.328125
1.13,1637401938.34375
2.68,1637401938.359375
4.66,1637401938.375
6.73,1637401938.390625
8.44,1637401938.40625
9.43,1637401938.421875
9.47,1637401938.4375
8.64,1637401938.453125
7.32,1637401938.46875
6.07,1637401938.484375
5.47,1637401938.5
5.76,1637401938.515625
6.75,1637401938.53125
7.86,1637401938.546875
8.35,1637401938.5625
7.62,1637401938.578125
5.57,1637401938.59375
2.5,1637401938.609375
-0.9,1637401938.625
-3.93,1637401938.640625
-6.08,1637401938.65625
-7.33,1637401938.671875
-7.95,1637401938.6875
-8.41,1637401938.703125
-9.08,1637401938.71875
-9.97,1637401938.734375
-10.89,1637401938.75
-11.41,1637401938.765625
-11.28,1637401938.78125
-10.52,1637401938.796875
-9.46,1637401938.8125
-8.51,1637401938.828125
-7.96,1637401938.84375
-7.8,1637401938.859375
-7.78,1637401938.875
-7.58,1637401938.890625
-7.01,1637401938.90625
-6.04,1637401938.921875
-4.72,1637401938.9375
-3.07,1637401938.953125
-1.05,1637401938.96875
1.41,1637401938.984375
4.3,1637401939.0
7.52,1637401939.015625
10.89,1637401939.03125
14.3,1637401939.046875
17.73,1637401939.0625
21.12,1637401939.078125
24.26,1637401939.09375
26.63,1637401939.109375
27.61,1637401939.125
26.59,1637401939.140625
23.48,1637401939.15625
18.68,1637401939.171875
13.1,1637401939.1875
7.72,1637401939.203125
3.29,1637401939.21875
0.07,1637401939.234375
-2.13,1637401939.25
-3.82,1637401939.265625
-5.56,1637401939.28125
-7.79,1637401939.296875
-10.65,1637401939.3125
-13.9,1637401939.328125
-16.96,1637401939.34375
-19.07,1637401939.359375
-19.57,1637401939.375
-18.17,1637401939.390625
-15.18,1637401939.40625
-11.37,1637401939.421875
-7.72,1637401939.4375
-4.99,1637401939.453125
-3.47,1637401939.46875
-2.96,1637401939.484375
-2.98,1637401939.5
-3.1,1637401939.515625
-3.13,1637401939.53125
-3.17,1637401939.546875
-3.38,1637401939.5625
-3.9,1637401939.578125
-4.58,1637401939.59375
-5.12,1637401939.609375
-5.09,1637401939.625
-4.18,1637401939.640625
-2.19,1637401939.65625
0.81,1637401939.671875
4.49,1637401939.6875
8.3,1637401939.703125
11.62,1637401939.71875
13.89,1637401939.734375
14.8,1637401939.75
14.48,1637401939.765625
13.29,1637401939.78125
11.76,1637401939.796875
10.28,1637401939.8125
9.01,1637401939.828125
7.95,1637401939.84375
7.01,1637401939.859375
6.19,1637401939.875
5.54,1637401939.890625
5.13,1637401939.90625
4.87,1637401939.921875
4.6,1637401939.9375
4.18,1637401939.953125
3.65,1637401939.96875
3.23,1637401939.984375
3.2,1637401940.0
3.69,1637401940.015625
4.57,1637401940.03125
5.56,1637401940.046875
6.29,1637401940.0625
6.59,1637401940.078125
6.52,1637401940.09375
6.33,1637401940.109375
6.34,1637401940.125
6.85,1637401940.140625
8.02,1637401940.15625
9.79,1637401940.171875
11.9,1637401940.1875
13.81,1637401940.203125
14.98,1637401940.21875
15.05,1637401940.234375
14.05,1637401940.25
12.45,1637401940.265625
10.95,1637401940.28125
10.21,1637401940.296875
10.54,1637401940.3125
11.76,1637401940.328125
13.41,1637401940.34375
14.9,1637401940.359375
15.77,1637401940.375
15.79,1637401940.390625
14.91,1637401940.40625
13.23,1637401940.421875
10.89,1637401940.4375
8.05,1637401940.453125
4.86,1637401940.46875
1.39,1637401940.484375
-2.2,1637401940.5
-5.71,1637401940.515625
-8.78,1637401940.53125
-10.96,1637401940.546875
-11.89,1637401940.5625
-11.54,1637401940.578125
-10.31,1637401940.59375
-8.97,1637401940.609375
-8.26,1637401940.625
-8.6,1637401940.640625
-9.91,1637401940.65625
-11.69,1637401940.671875
-13.37,1637401940.6875
-14.69,1637401940.703125
-15.73,1637401940.71875
-16.74,1637401940.734375
-17.83,1637401940.75
-18.75,1637401940.765625
-19.0,1637401940.78125
-18.09,1637401940.796875
-15.96,1637401940.8125
-13.02,1637401940.828125
-9.97,1637401940.84375
-7.46,1637401940.859375
-5.75,1637401940.875
-4.71,1637401940.890625
-3.9,1637401940.90625
-2.96,1637401940.921875
-1.74,1637401940.9375
-0.37,1637401940.953125
0.91,1637401940.96875
1.9,1637401940.984375
2.59,1637401941.0
3.06,1637401941.015625
3.39,1637401941.03125
3.54,1637401941.046875
3.38,1637401941.0625
2.76,1637401941.078125
1.63,1637401941.09375
0.05,1637401941.109375
-1.76,1637401941.125
-3.59,1637401941.140625
-5.24,1637401941.15625
-6.55,1637401941.171875
-7.45,1637401941.1875
-7.82,1637401941.203125
-7.66,1637401941.21875
-7.02,1637401941.234375
-6.08,1637401941.25
-5.11,1637401941.265625
-4.35,1637401941.28125
-3.95,1637401941.296875
-3.96,1637401941.3125
-4.28,1637401941.328125
-4.86,1637401941.34375
-5.61,1637401941.359375
-6.49,1637401941.375
-7.44,1637401941.390625
-8.37,1637401941.40625
-9.18,1637401941.421875
-9.73,1637401941.4375
-9.87,1637401941.453125
-9.49,1637401941.46875
-8.55,1637401941.484375
-7.18,1637401941.5
-5.57,1637401941.515625
-4.09,1637401941.53125
-3.04,1637401941.546875
-2.6,1637401941.5625
-2.74,1637401941.578125
-3.22,1637401941.59375
-3.71,1637401941.609375
-3.93,1637401941.625
-3.82,1637401941.640625
-3.46,1637401941.65625
-3.07,1637401941.671875
-2.8,1637401941.6875
-2.7,1637401941.703125
-2.68,1637401941.71875
-2.57,1637401941.734375
-2.24,1637401941.75
-1.6,1637401941.765625
-0.7,1637401941.78125
0.43,1637401941.796875
1.65,1637401941.8125
2.86,1637401941.828125
3.89,1637401941.84375
4.56,1637401941.859375
4.76,1637401941.875
4.45,1637401941.890625
3.76,1637401941.90625
2.87,1637401941.921875
2.01,1637401941.9375
1.3,1637401941.953125
0.75,1637401941.96875
0.22,1637401941.984375
-0.38,1637401942.0
-1.09,1637401942.015625
-1.79,1637401942.03125
-2.32,1637401942.046875
-2.5,1637401942.0625
-2.22,1637401942.078125
-1.55,1637401942.09375
-0.61,1637401942.109375
0.47,1637401942.125
1.55,1637401942.140625
2.57,1637401942.15625
3.42,1637401942.171875
4.02,1637401942.1875
4.35,1637401942.203125
4.47,1637401942.21875
4.55,1637401942.234375
4.76,1637401942.25
5.27,1637401942.265625
6.12,1637401942.28125
7.22,1637401942.296875
8.38,1637401942.3125
9.37,1637401942.328125
10.05,1637401942.34375
10.35,1637401942.359375
10.32,1637401942.375
10.14,1637401942.390625
9.97,1637401942.40625
9.93,1637401942.421875
10.01,1637401942.4375
10.09,1637401942.453125
10.0,1637401942.46875
9.65,1637401942.484375
9.04,1637401942.5
8.32,1637401942.515625
7.63,1637401942.53125
7.07,1637401942.546875
6.61,1637401942.5625
6.18,1637401942.578125
5.69,1637401942.59375
5.13,1637401942.609375
4.49,1637401942.625
3.76,1637401942.640625
2.81,1637401942.65625
1.53,1637401942.671875
-0.08,1637401942.6875
-1.81,1637401942.703125
-3.37,1637401942.71875
-4.43,1637401942.734375
-4.89,1637401942.75
-4.86,1637401942.765625
-4.61,1637401942.78125
-4.32,1637401942.796875
-4.0,1637401942.8125
-3.59,1637401942.828125
-2.93,1637401942.84375
-2.08,1637401942.859375
-1.16,1637401942.875
-0.33,1637401942.890625
0.33,1637401942.90625
0.87,1637401942.921875
1.44,1637401942.9375
2.18,1637401942.953125
3.09,1637401942.96875
4.11,1637401942.984375
5.1,1637401943.0
5.97,1637401943.015625
6.62,1637401943.03125
6.92,1637401943.046875
6.8,1637401943.0625
6.24,1637401943.078125
5.34,1637401943.09375
4.29,1637401943.109375
3.32,1637401943.125
2.54,1637401943.140625
1.91,1637401943.15625
1.29,1637401943.171875
0.54,1637401943.1875
-0.36,1637401943.203125
-1.35,1637401943.21875
-2.39,1637401943.234375
-3.53,1637401943.25
-4.95,1637401943.265625
-6.93,1637401943.28125
-9.55,1637401943.296875
-12.62,1637401943.3125
-15.71,1637401943.328125
-18.21,1637401943.34375
-19.68,1637401943.359375
-19.97,1637401943.375
-19.21,1637401943.390625
-17.74,1637401943.40625
-15.91,1637401943.421875
-13.92,1637401943.4375
-11.79,1637401943.453125
-9.55,1637401943.46875
-7.23,1637401943.484375
-4.98,1637401943.5
-2.98,1637401943.515625
-1.39,1637401943.53125
-0.26,1637401943.546875
0.41,1637401943.5625
0.77,1637401943.578125
1.0,1637401943.59375
1.31,1637401943.609375
1.89,1637401943.625
2.89,1637401943.640625
4.3,1637401943.65625
6.01,1637401943.671875
7.71,1637401943.6875
9.12,1637401943.703125
10.01,1637401943.71875
10.28,1637401943.734375
10.01,1637401943.75
9.39,1637401943.765625
8.58,1637401943.78125
7.69,1637401943.796875
6.79,1637401943.8125
5.87,1637401943.828125
4.91,1637401943.84375
3.97,1637401943.859375
3.11,1637401943.875
2.37,1637401943.890625
1.71,1637401943.90625
1.08,1637401943.921875
0.34,1637401943.9375
-0.57,1637401943.953125
-1.64,1637401943.96875
-2.72,1637401943.984375
-3.58,1637401944.0
-4.03,1637401944.015625
-3.96,1637401944.03125
-3.34,1637401944.046875
-2.26,1637401944.0625
-0.89,1637401944.078125
0.63,1637401944.09375
2.1,1637401944.109375
3.34,1637401944.125
4.13,1637401944.140625
4.37,1637401944.15625
4.09,1637401944.171875
3.5,1637401944.1875
2.88,1637401944.203125
2.43,1637401944.21875
2.11,1637401944.234375
1.58,1637401944.25
0.47,1637401944.265625
-1.39,1637401944.28125
-3.74,1637401944.296875
-5.95,1637401944.3125
-7.28,1637401944.328125
-7.31,1637401944.34375
-6.17,1637401944.359375
-4.41,1637401944.375
-2.75,1637401944.390625
-1.65,1637401944.40625
-1.25,1637401944.421875
-1.34,1637401944.4375
-1.64,1637401944.453125
-2.01,1637401944.46875
-2.44,1637401944.484375
-2.99,1637401944.5
-3.66,1637401944.515625
-4.27,1637401944.53125
-4.66,1637401944.546875
-4.67,1637401944.5625
-4.25,1637401944.578125
-3.43,1637401944.59375
-2.37,1637401944.609375
-1.13,1637401944.625
0.19,1637401944.640625
1.47,1637401944.65625
2.57,1637401944.671875
3.39,1637401944.6875
3.82,1637401944.703125
3.87,1637401944.71875
3.57,1637401944.734375
2.96,1637401944.75
2.05,1637401944.765625
0.83,1637401944.78125
-0.68,1637401944.796875
-2.39,1637401944.8125
-4.18,1637401944.828125
-5.86,1637401944.84375
-7.31,1637401944.859375
-8.45,1637401944.875
-9.26,1637401944.890625
-9.69,1637401944.90625
-9.73,1637401944.921875
-9.37,1637401944.9375
-8.71,1637401944.953125
-7.91,1637401944.96875
-7.2,1637401944.984375
-6.79,1637401945.0
-6.77,1637401945.015625
-7.09,1637401945.03125
-7.61,1637401945.046875
-8.14,1637401945.0625
-8.47,1637401945.078125
-8.39,1637401945.09375
-7.72,1637401945.109375
-6.3,1637401945.125
-4.06,1637401945.140625
-1.02,1637401945.15625
2.62,1637401945.171875
6.57,1637401945.1875
10.42,1637401945.203125
13.86,1637401945.21875
16.59,1637401945.234375
18.49,1637401945.25
19.58,1637401945.265625
20.01,1637401945.28125
19.96,1637401945.296875
19.61,1637401945.3125
19.04,1637401945.328125
18.22,1637401945.34375
17.05,1637401945.359375
15.46,1637401945.375
13.58,1637401945.390625
11.7,1637401945.40625
10.27,1637401945.421875
9.64,1637401945.4375
9.99,1637401945.453125
11.18,1637401945.46875
12.83,1637401945.484375
14.45,1637401945.5
15.6,1637401945.515625
16.01,1637401945.53125
15.57,1637401945.546875
14.29,1637401945.5625
12.28,1637401945.578125
9.71,1637401945.59375
6.9,1637401945.609375
4.18,1637401945.625
1.95,1637401945.640625
0.48,1637401945.65625
-0.14,1637401945.671875
0.06,1637401945.6875
0.91,1637401945.703125
2.27,1637401945.71875
3.91,1637401945.734375
5.57,1637401945.75
6.87,1637401945.765625
7.44,1637401945.78125
6.98,1637401945.796875
5.45,1637401945.8125
3.1,1637401945.828125
0.4,1637401945.84375
-2.18,1637401945.859375
-4.36,1637401945.875
-6.13,1637401945.890625
-7.58,1637401945.90625
-8.77,1637401945.921875
-9.56,1637401945.9375
-9.73,1637401945.953125
-9.12,1637401945.96875
-7.83,1637401945.984375
-6.31,1637401946.0
-5.1,1637401946.015625
-4.63,1637401946.03125
-5.02,1637401946.046875
-6.01,1637401946.0625
-7.12,1637401946.078125
-7.94,1637401946.09375
-8.28,1637401946.109375
-8.28,1637401946.125
-8.17,1637401946.140625
-8.12,1637401946.15625
-8.1,1637401946.171875
-7.89,1637401946.1875
-7.22,1637401946.203125
-5.87,1637401946.21875
-3.96,1637401946.234375
-1.87,1637401946.25
-0.17,1637401946.265625
0.59,1637401946.28125
0.22,1637401946.296875
-1.09,1637401946.3125
-2.8,1637401946.328125
-4.29,1637401946.34375
-5.17,1637401946.359375
-5.32,1637401946.375
-5.01,1637401946.390625
-4.52,1637401946.40625
-4.07,1637401946.421875
-3.67,1637401946.4375
-3.26,1637401946.453125
-2.83,1637401946.46875
-2.54,1637401946.484375
-2.72,1637401946.5
-3.68,1637401946.515625
-5.42,1637401946.53125
-7.64,1637401946.546875
-9.79,1637401946.5625
-11.37,1637401946.578125
-12.22,1637401946.59375
-12.6,1637401946.609375
-12.97,1637401946.625
-13.66,1637401946.640625
-14.65,1637401946.65625
-15.53,1637401946.671875
-15.76,1637401946.6875
-14.96,1637401946.703125
-13.14,1637401946.71875
-10.75,1637401946.734375
-8.43,1637401946.75
-6.75,1637401946.765625
-5.96,1637401946.78125
-5.95,1637401946.796875
-6.34,1637401946.8125
-6.69,1637401946.828125
-6.66,1637401946.84375
-6.13,1637401946.859375
-5.21,1637401946.875
-4.16,1637401946.890625
-3.25,1637401946.90625
-2.59,1637401946.921875
-2.12,1637401946.9375
-1.62,1637401946.953125
-0.86,1637401946.96875
0.23,1637401946.984375
1.53,1637401947.0
2.82,1637401947.015625
3.84,1637401947.03125
4.47,1637401947.046875
4.67,1637401947.0625
4.52,1637401947.078125
4.14,1637401947.09375
3.65,1637401947.109375
3.15,1637401947.125
2.77,1637401947.140625
2.58,1637401947.15625
2.62,1637401947.171875
2.83,1637401947.1875
3.11,1637401947.203125
3.32,1637401947.21875
3.35,1637401947.234375
3.11,1637401947.25
2.53,1637401947.265625
1.5,1637401947.28125
0.01,1637401947.296875
-1.82,1637401947.3125
-3.7,1637401947.328125
-5.21,1637401947.34375
-6.04,1637401947.359375
-6.19,1637401947.375
-5.98,1637401947.390625
-5.9,1637401947.40625
-6.23,1637401947.421875
-6.88,1637401947.4375
-7.25,1637401947.453125
-6.54,1637401947.46875
-4.12,1637401947.484375
0.03,1637401947.5
5.37,1637401947.515625
10.95,1637401947.53125
15.85,1637401947.546875
19.51,1637401947.5625
21.8,1637401947.578125
22.91,1637401947.59375
23.16,1637401947.609375
22.71,1637401947.625
21.6,1637401947.640625
19.87,1637401947.65625
17.67,1637401947.671875
15.38,1637401947.6875
13.48,1637401947.703125
12.34,1637401947.71875
12.02,1637401947.734375
12.24,1637401947.75
12.43,1637401947.765625
12.03,1637401947.78125
10.72,1637401947.796875
8.56,1637401947.8125
5.94,1637401947.828125
3.38,1637401947.84375
1.28,1637401947.859375
-0.24,1637401947.875
-1.31,1637401947.890625
-2.15,1637401947.90625
-2.89,1637401947.921875
-3.4,1637401947.9375
-3.46,1637401947.953125
-2.85,1637401947.96875
-1.59,1637401947.984375
0.04,1637401948.0
1.7,1637401948.015625
3.15,1637401948.03125
4.42,1637401948.046875
5.72,1637401948.0625
7.24,1637401948.078125
8.97,1637401948.09375
10.63,1637401948.109375
11.82,1637401948.125
12.3,1637401948.140625
12.14,1637401948.15625
11.74,1637401948.171875
11.5,1637401948.1875
11.66,1637401948.203125
12.1,1637401948.21875
12.46,1637401948.234375
12.37,1637401948.25
11.74,1637401948.265625
10.8,1637401948.28125
9.89,1637401948.296875
9.34,1637401948.3125
9.18,1637401948.328125
9.21,1637401948.34375
9.01,1637401948.359375
8.19,1637401948.375
6.57,1637401948.390625
4.19,1637401948.40625
1.3,1637401948.421875
-1.71,1637401948.4375
-4.33,1637401948.453125
-6.16,1637401948.46875
-6.91,1637401948.484375
-6.63,1637401948.5
-5.73,1637401948.515625
-4.81,1637401948.53125
-4.51,1637401948.546875
-5.16,1637401948.5625
-6.72,1637401948.578125
-8.86,1637401948.59375
-11.14,1637401948.609375
-13.22,1637401948.625
-14.97,1637401948.640625
-16.4,1637401948.65625
-17.43,1637401948.671875
-17.99,1637401948.6875
-17.94,1637401948.703125
-17.31,1637401948.71875
-16.29,1637401948.734375
-15.32,1637401948.75
-14.78,1637401948.765625
-14.86,1637401948.78125
-15.42,1637401948.796875
-16.05,1637401948.8125
-16.35,1637401948.828125
-16.07,1637401948.84375
-15.24,1637401948.859375
-14.16,1637401948.875
-13.18,1637401948.890625
-12.57,1637401948.90625
-12.39,1637401948.921875
-12.53,1637401948.9375
-12.76,1637401948.953125
-12.91,1637401948.96875
-12.9,1637401948.984375
-12.76,1637401949.0
-12.61,1637401949.015625
-12.55,1637401949.03125
-12.59,1637401949.046875
-12.64,1637401949.0625
-12.53,1637401949.078125
-12.06,1637401949.09375
-11.13,1637401949.109375
-9.73,1637401949.125
-7.9,1637401949.140625
-5.67,1637401949.15625
-2.99,1637401949.171875
0.24,1637401949.1875
3.99,1637401949.203125
8.0,1637401949.21875
11.82,1637401949.234375
14.92,1637401949.25
16.91,1637401949.265625
17.71,1637401949.28125
17.54,1637401949.296875
16.74,1637401949.3125
15.62,1637401949.328125
14.3,1637401949.34375
12.78,1637401949.359375
11.17,1637401949.375
9.65,1637401949.390625
8.54,1637401949.40625
8.05,1637401949.421875
8.16,1637401949.4375
8.57,1637401949.453125
8.79,1637401949.46875
8.45,1637401949.484375
7.39,1637401949.5
5.7,1637401949.515625
3.57,1637401949.53125
1.19,1637401949.546875
-1.32,1637401949.5625
-3.85,1637401949.578125
-6.21,1637401949.59375
-8.11,1637401949.609375
-9.24,1637401949.625
-9.38,1637401949.640625
-8.56,1637401949.65625
-6.99,1637401949.671875
-5.0,1637401949.6875
-2.88,1637401949.703125
-0.83,1637401949.71875
1.04,1637401949.734375
2.64,1637401949.75
3.9,1637401949.765625
4.78,1637401949.78125
5.28,1637401949.796875
5.51,1637401949.8125
5.62,1637401949.828125
5.83,1637401949.84375
6.3,1637401949.859375
7.14,1637401949.875
8.23,1637401949.890625
9.36,1637401949.90625
10.24,1637401949.921875
10.6,1637401949.9375
10.43,1637401949.953125
9.89,1637401949.96875
9.3,1637401949.984375
8.95,1637401950.0
8.96,1637401950.015625
9.21,1637401950.03125
9.45,1637401950.046875
9.48,1637401950.0625
9.22,1637401950.078125
8.86,1637401950.09375
8.6,1637401950.109375
8.54,1637401950.125
8.58,1637401950.140625
8.41,1637401950.15625
7.78,1637401950.171875
6.61,1637401950.1875
5.1,1637401950.203125
3.59,1637401950.21875
2.43,1637401950.234375
1.85,1637401950.25
1.85,1637401950.265625
2.38,1637401950.28125
3.29,1637401950.296875
4.51,1637401950.3125
5.85,1637401950.328125
6.98,1637401950.34375
7.45,1637401950.359375
6.82,1637401950.375
4.93,1637401950.390625
2.03,1637401950.40625
-1.27,1637401950.421875
-4.24,1637401950.4375
-6.34,1637401950.453125
-7.33,1637401950.46875
-7.38,1637401950.484375
-6.89,1637401950.5
-6.31,1637401950.515625
-5.98,1637401950.53125
-6.14,1637401950.546875
-6.86,1637401950.5625
-8.13,1637401950.578125
-9.81,1637401950.59375
-11.72,1637401950.609375
-13.65,1637401950.625
-15.44,1637401950.640625
-17.04,1637401950.65625
-18.42,1637401950.671875
-19.65,1637401950.6875
-20.76,1637401950.703125
-21.77,1637401950.71875
-22.6,1637401950.734375
-23.18,1637401950.75
-23.32,1637401950.765625
-22.84,1637401950.78125
-21.49,1637401950.796875
-19.09,1637401950.8125
-15.59,1637401950.828125
-11.12,1637401950.84375
-6.09,1637401950.859375
-1.05,1637401950.875
3.42,1637401950.890625
6.84,1637401950.90625
9.02,1637401950.921875
10.01,1637401950.9375
10.07,1637401950.953125
9.54,1637401950.96875
8.74,1637401950.984375
7.88,1637401951.0
7.12,1637401951.015625
6.58,1637401951.03125
6.36,1637401951.046875
6.46,1637401951.0625
6.74,1637401951.078125
6.93,1637401951.09375
6.64,1637401951.109375
5.65,1637401951.125
3.9,1637401951.140625
1.66,1637401951.15625
-0.68,1637401951.171875
-2.7,1637401951.1875
-4.14,1637401951.203125
-5.01,1637401951.21875
-5.45,1637401951.234375
-5.73,1637401951.25
-5.97,1637401951.265625
-6.22,1637401951.28125
-6.49,1637401951.296875
-6.79,1637401951.3125
-7.23,1637401951.328125
-7.93,1637401951.34375
-9.03,1637401951.359375
-10.48,1637401951.375
-12.11,1637401951.390625
-13.63,1637401951.40625
-14.73,1637401951.421875
-15.23,1637401951.4375
-15.16,1637401951.453125
-14.77,1637401951.46875
-14.39,1637401951.484375
-14.38,1637401951.5
-14.94,1637401951.515625
-16.02,1637401951.53125
-17.4,1637401951.546875
-18.6,1637401951.5625
-19.1,1637401951.578125
-18.37,1637401951.59375
-16.06,1637401951.609375
-12.09,1637401951.625
-6.7,1637401951.640625
-0.45,1637401951.65625
5.88,1637401951.671875
11.5,1637401951.6875
15.81,1637401951.703125
18.53,1637401951.71875
19.75,1637401951.734375
19.79,1637401951.75
19.1,1637401951.765625
18.15,1637401951.78125
17.22,1637401951.796875
16.47,1637401951.8125
15.9,1637401951.828125
15.41,1637401951.84375
14.9,1637401951.859375
14.35,1637401951.875
13.78,1637401951.890625
13.27,1637401951.90625
12.86,1637401951.921875
12.52,1637401951.9375
12.18,1637401951.953125
11.65,1637401951.96875
10.8,1637401951.984375
9.52,1637401952.0
7.79,1637401952.015625
5.68,1637401952.03125
3.31,1637401952.046875
0.91,1637401952.0625
-1.21,1637401952.078125
-2.7,1637401952.09375
-3.22,1637401952.109375
-2.65,1637401952.125
-1.11,1637401952.140625
0.99,1637401952.15625
3.1,1637401952.171875
4.7,1637401952.1875
5.45,1637401952.203125
5.27,1637401952.21875
4.31,1637401952.234375
2.8,1637401952.25
0.98,1637401952.265625
-0.98,1637401952.28125
-2.94,1637401952.296875
-4.78,1637401952.3125
-6.33,1637401952.328125
-7.38,1637401952.34375
-7.86,1637401952.359375
-7.77,1637401952.375
-7.18,1637401952.390625
-6.07,1637401952.40625
-4.21,1637401952.421875
-1.08,1637401952.4375
3.82,1637401952.453125
10.67,1637401952.46875
18.93,1637401952.484375
27.42,1637401952.5
34.61,1637401952.515625
39.28,1637401952.53125
40.97,1637401952.546875
40.22,1637401952.5625
38.22,1637401952.578125
36.1,1637401952.59375
34.51,1637401952.609375
33.37,1637401952.625
32.02,1637401952.640625
29.79,1637401952.65625
26.29,1637401952.671875
21.55,1637401952.6875
16.0,1637401952.703125
10.11,1637401952.71875
4.27,1637401952.734375
-1.27,1637401952.75
-6.38,1637401952.765625
-10.91,1637401952.78125
-14.66,1637401952.796875
-17.38,1637401952.8125
-18.88,1637401952.828125
-19.05,1637401952.84375
-17.96,1637401952.859375
-15.92,1637401952.875
-13.41,1637401952.890625
-11.06,1637401952.90625
-9.49,1637401952.921875
-9.01,1637401952.9375
-9.6,1637401952.953125
-10.72,1637401952.96875
-11.62,1637401952.984375
-11.5,1637401953.0
-9.93,1637401953.015625
-6.93,1637401953.03125
-3.01,1637401953.046875
1.07,1637401953.0625
4.51,1637401953.078125
6.66,1637401953.09375
7.15,1637401953.109375
5.9,1637401953.125
3.12,1637401953.140625
-0.76,1637401953.15625
-5.02,1637401953.171875
-8.81,1637401953.1875
-11.3,1637401953.203125
-11.93,1637401953.21875
-10.67,1637401953.234375
-8.03,1637401953.25
-4.9,1637401953.265625
-2.22,1637401953.28125
-0.67,1637401953.296875
-0.47,1637401953.3125
-1.41,1637401953.328125
-3.1,1637401953.34375
-5.11,1637401953.359375
-7.13,1637401953.375
-9.0,1637401953.390625
-10.56,1637401953.40625
-11.75,1637401953.421875
-12.49,1637401953.4375
-12.78,1637401953.453125
-12.75,1637401953.46875
-12.6,1637401953.484375
-12.49,1637401953.5
-12.55,1637401953.515625
-12.67,1637401953.53125
-12.65,1637401953.546875
-12.23,1637401953.5625
-11.21,1637401953.578125
-9.52,1637401953.59375
-7.3,1637401953.609375
-4.8,1637401953.625
-2.33,1637401953.640625
-0.11,1637401953.65625
1.73,1637401953.671875
3.27,1637401953.6875
4.59,1637401953.703125
5.75,1637401953.71875
6.73,1637401953.734375
7.47,1637401953.75
7.9,1637401953.765625
8.06,1637401953.78125
8.01,1637401953.796875
7.86,1637401953.8125
7.68,1637401953.828125
7.49,1637401953.84375
7.22,1637401953.859375
6.75,1637401953.875
5.98,1637401953.890625
4.77,1637401953.90625
3.05,1637401953.921875
0.77,1637401953.9375
-1.97,1637401953.953125
-4.99,1637401953.96875
-7.95,1637401953.984375
-10.48,1637401954.0
-12.28,1637401954.015625
-13.11,1637401954.03125
-12.87,1637401954.046875
-11.59,1637401954.0625
-9.43,1637401954.078125
-6.7,1637401954.09375
-3.89,1637401954.109375
-1.5,1637401954.125
0.06,1637401954.140625
0.63,1637401954.15625
0.37,1637401954.171875
-0.37,1637401954.1875
-1.11,1637401954.203125
-1.48,1637401954.21875
-1.28,1637401954.234375
-0.48,1637401954.25
0.79,1637401954.265625
2.36,1637401954.28125
4.02,1637401954.296875
5.61,1637401954.3125
6.92,1637401954.328125
7.85,1637401954.34375
8.31,1637401954.359375
8.27,1637401954.375
7.79,1637401954.390625
6.87,1637401954.40625
5.57,1637401954.421875
3.99,1637401954.4375
2.3,1637401954.453125
0.72,1637401954.46875
-0.53,1637401954.484375
-1.36,1637401954.5
-1.82,1637401954.515625
-2.07,1637401954.53125
-2.25,1637401954.546875
-2.39,1637401954.5625
-2.39,1637401954.578125
-2.04,1637401954.59375
-1.25,1637401954.609375
-0.15,1637401954.625
0.95,1637401954.640625
1.6,1637401954.65625
1.49,1637401954.671875
0.61,1637401954.6875
-0.76,1637401954.703125
-2.18,1637401954.71875
-3.22,1637401954.734375
-3.73,1637401954.75
-3.87,1637401954.765625
-4.01,1637401954.78125
-4.5,1637401954.796875
-5.46,1637401954.8125
-6.64,1637401954.828125
-7.53,1637401954.84375
-7.61,1637401954.859375
-6.53,1637401954.875
-4.37,1637401954.890625
-1.57,1637401954.90625
1.24,1637401954.921875
3.52,1637401954.9375
5.01,1637401954.953125
5.79,1637401954.96875
6.11,1637401954.984375
6.22,1637401955.0
6.17,1637401955.015625
5.84,1637401955.03125
5.09,1637401955.046875
3.95,1637401955.0625
2.7,1637401955.078125
1.76,1637401955.09375
1.45,1637401955.109375
1.79,1637401955.125
2.41,1637401955.140625
2.77,1637401955.15625
2.48,1637401955.171875
1.53,1637401955.1875
0.32,1637401955.203125
-0.6,1637401955.21875
-0.83,1637401955.234375
-0.39,1637401955.25
0.37,1637401955.265625
0.99,1637401955.28125
1.23,1637401955.296875
1.17,1637401955.3125
1.04,1637401955.328125
1.14,1637401955.34375
1.5,1637401955.359375
2.0,1637401955.375
2.45,1637401955.390625
2.66,1637401955.40625
2.58,1637401955.421875
2.19,1637401955.4375
1.51,1637401955.453125
0.57,1637401955.46875
-0.56,1637401955.484375
-1.74,1637401955.5
-2.77,1637401955.515625
-3.55,1637401955.53125
-4.13,1637401955.546875
-4.66,1637401955.5625
-5.31,1637401955.578125
-6.19,1637401955.59375
-7.24,1637401955.609375
-8.35,1637401955.625
-9.42,1637401955.640625
-10.38,1637401955.65625
-11.24,1637401955.671875
-12.0,1637401955.6875
-12.7,1637401955.703125
-13.38,1637401955.71875
-14.16,1637401955.734375
-15.2,1637401955.75
-16.6,1637401955.765625
-18.3,1637401955.78125
-20.04,1637401955.796875
-21.31,1637401955.8125
-21.63,1637401955.828125
-20.65,1637401955.84375
-18.36,1637401955.859375
-15.06,1637401955.875
-11.26,1637401955.890625
-7.6,1637401955.90625
-4.56,1637401955.921875
-2.39,1637401955.9375
-1.14,1637401955.953125
-0.68,1637401955.96875
-0.74,1637401955.984375
-1.13,1637401956.0
-1.66,1637401956.015625
-2.23,1637401956.03125
-2.77,1637401956.046875
-3.12,1637401956.0625
-3.07,1637401956.078125
-2.39,1637401956.09375
-0.95,1637401956.109375
1.17,1637401956.125
3.66,1637401956.140625
6.07,1637401956.15625
8.05,1637401956.171875
9.4,1637401956.1875
10.17,1637401956.203125
10.58,1637401956.21875
10.84,1637401956.234375
11.07,1637401956.25
11.27,1637401956.265625
11.39,1637401956.28125
11.38,1637401956.296875
11.29,1637401956.3125
11.23,1637401956.328125
11.31,1637401956.34375
11.64,1637401956.359375
12.22,1637401956.375
12.98,1637401956.390625
13.79,1637401956.40625
14.5,1637401956.421875
14.93,1637401956.4375
14.98,1637401956.453125
14.62,1637401956.46875
13.92,1637401956.484375
13.04,1637401956.5
12.17,1637401956.515625
11.43,1637401956.53125
10.85,1637401956.546875
10.33,1637401956.5625
9.68,1637401956.578125
8.71,1637401956.59375
7.27,1637401956.609375
5.32,1637401956.625
2.95,1637401956.640625
0.43,1637401956.65625
-1.86,1637401956.671875
-3.51,1637401956.6875
-4.21,1637401956.703125
-3.84,1637401956.71875
-2.59,1637401956.734375
-0.78,1637401956.75
1.11,1637401956.765625
2.76,1637401956.78125
4.02,1637401956.796875
5.0,1637401956.8125
5.86,1637401956.828125
6.73,1637401956.84375
7.62,1637401956.859375
8.45,1637401956.875
9.14,1637401956.890625
9.56,1637401956.90625
9.68,1637401956.921875
9.46,1637401956.9375
8.83,1637401956.953125
7.79,1637401956.96875
6.38,1637401956.984375
4.77,1637401957.0
3.24,1637401957.015625
2.02,1637401957.03125
1.22,1637401957.046875
0.73,1637401957.0625
0.26,1637401957.078125
-0.44,1637401957.09375
-1.54,1637401957.109375
-2.97,1637401957.125
-4.53,1637401957.140625
-6.0,1637401957.15625
-7.25,1637401957.171875
-8.24,1637401957.1875
-9.0,1637401957.203125
-9.52,1637401957.21875
-9.8,1637401957.234375
-9.81,1637401957.25
-9.57,1637401957.265625
-9.1,1637401957.28125
-8.44,1637401957.296875
-7.54,1637401957.3125
-6.34,1637401957.328125
-4.77,1637401957.34375
-3.0,1637401957.359375
-1.3,1637401957.375
-0.06,1637401957.390625
0.39,1637401957.40625
-0.03,1637401957.421875
-1.15,1637401957.4375
-2.66,1637401957.453125
-4.16,1637401957.46875
-5.46,1637401957.484375
-6.51,1637401957.5
-7.47,1637401957.515625
-8.64,1637401957.53125
-10.32,1637401957.546875
-12.7,1637401957.5625
-15.75,1637401957.578125
-19.12,1637401957.59375
-22.17,1637401957.609375
-24.04,1637401957.625
-24.02,1637401957.640625
-21.78,1637401957.65625
-17.6,1637401957.671875
-12.26,1637401957.6875
-6.78,1637401957.703125
-2.03,1637401957.71875
1.55,1637401957.734375
3.99,1637401957.75
5.52,1637401957.765625
6.32,1637401957.78125
6.4,1637401957.796875
5.71,1637401957.8125
4.29,1637401957.828125
2.45,1637401957.84375
0.67,1637401957.859375
-0.65,1637401957.875
-1.32,1637401957.890625
-1.44,1637401957.90625
-1.31,1637401957.921875
-1.16,1637401957.9375
-1.03,1637401957.953125
-0.84,1637401957.96875
-0.38,1637401957.984375
0.55,1637401958.0
2.0,1637401958.015625
3.89,1637401958.03125
6.04,1637401958.046875
8.15,1637401958.0625
9.88,1637401958.078125
10.93,1637401958.09375
11.15,1637401958.109375
10.6,1637401958.125
9.57,1637401958.140625
8.39,1637401958.15625
7.38,1637401958.171875
6.74,1637401958.1875
6.58,1637401958.203125
6.91,1637401958.21875
7.62,1637401958.234375
8.52,1637401958.25
9.3,1637401958.265625
9.7,1637401958.28125
9.59,1637401958.296875
9.09,1637401958.3125
8.53,1637401958.328125
8.23,1637401958.34375
8.34,1637401958.359375
8.7,1637401958.375
8.97,1637401958.390625
8.75,1637401958.40625
7.95,1637401958.421875
6.7,1637401958.4375
5.35,1637401958.453125
4.13,1637401958.46875
3.08,1637401958.484375
1.93,1637401958.5
0.34,1637401958.515625
-1.99,1637401958.53125
-5.08,1637401958.546875
-8.59,1637401958.5625
-11.99,1637401958.578125
-14.58,1637401958.59375
-15.73,1637401958.609375
-14.98,1637401958.625
-12.25,1637401958.640625
-7.86,1637401958.65625
-2.54,1637401958.671875
2.76,1637401958.6875
7.17,1637401958.703125
10.11,1637401958.71875
11.48,1637401958.734375
11.57,1637401958.75
10.87,1637401958.765625
9.84,1637401958.78125
8.78,1637401958.796875
7.81,1637401958.8125
6.94,1637401958.828125
6.26,1637401958.84375
5.83,1637401958.859375
5.67,1637401958.875
5.73,1637401958.890625
5.85,1637401958.90625
5.79,1637401958.921875
5.41,1637401958.9375
4.65,1637401958.953125
3.63,1637401958.96875
2.49,1637401958.984375
1.36,1637401959.0
0.28,1637401959.015625
-0.75,1637401959.03125
-1.78,1637401959.046875
-2.8,1637401959.0625
-3.8,1637401959.078125
-4.74,1637401959.09375
-5.64,1637401959.109375
-6.57,1637401959.125
-7.57,1637401959.140625
-8.7,1637401959.15625
-9.99,1637401959.171875
-11.42,1637401959.1875
-12.96,1637401959.203125
-14.5,1637401959.21875
-15.89,1637401959.234375
-16.97,1637401959.25
-17.65,1637401959.265625
-17.92,1637401959.28125
-17.93,1637401959.296875
-17.91,1637401959.3125
-18.12,1637401959.328125
-18.71,1637401959.34375
-19.63,1637401959.359375
-20.69,1637401959.375
-21.61,1637401959.390625
-22.11,1637401959.40625
-21.9,1637401959.421875
-20.8,1637401959.4375
-18.58,1637401959.453125
-15.18,1637401959.46875
-10.71,1637401959.484375
-5.54,1637401959.5
-0.29,1637401959.515625
4.39,1637401959.53125
8.04,1637401959.546875
10.49,1637401959.5625
11.91,1637401959.578125
12.6,1637401959.59375
12.8,1637401959.609375
12.62,1637401959.625
12.0,1637401959.640625
10.9,1637401959.65625
9.42,1637401959.671875
7.81,1637401959.6875
6.4,1637401959.703125
5.5,1637401959.71875
5.24,1637401959.734375
5.6,1637401959.75
6.35,1637401959.765625
7.11,1637401959.78125
7.54,1637401959.796875
7.34,1637401959.8125
6.52,1637401959.828125
5.36,1637401959.84375
4.41,1637401959.859375
4.14,1637401959.875
4.76,1637401959.890625
6.03,1637401959.90625
7.33,1637401959.921875
7.96,1637401959.9375
7.4,1637401959.953125
5.59,1637401959.96875
2.85,1637401959.984375
-0.31,1637401960.0
-3.4,1637401960.015625
-6.14,1637401960.03125
-8.35,1637401960.046875
-9.92,1637401960.0625
-10.74,1637401960.078125
-10.76,1637401960.09375
-10.11,1637401960.109375
-9.14,1637401960.125
-8.35,1637401960.140625
-8.21,1637401960.15625
-9.01,1637401960.171875
-10.72,1637401960.1875
-13.16,1637401960.203125
-15.98,1637401960.21875
-18.91,1637401960.234375
-21.64,1637401960.25
-23.9,1637401960.265625
-25.32,1637401960.28125
-25.48,1637401960.296875
-24.04,1637401960.3125
-20.87,1637401960.328125
-16.11,1637401960.34375
-10.21,1637401960.359375
-3.8,1637401960.375
2.45,1637401960.390625
7.99,1637401960.40625
12.5,1637401960.421875
15.83,1637401960.4375
18.08,1637401960.453125
19.39,1637401960.46875
19.93,1637401960.484375
19.79,1637401960.5
19.1,1637401960.515625
18.01,1637401960.53125
16.83,1637401960.546875
15.95,1637401960.5625
15.78,1637401960.578125
16.42,1637401960.59375
17.72,1637401960.609375
19.18,1637401960.625
20.24,1637401960.640625
20.46,1637401960.65625
19.81,1637401960.671875
18.66,1637401960.6875
17.6,1637401960.703125
17.09,1637401960.71875
17.33,1637401960.734375
18.12,1637401960.75
18.97,1637401960.765625
19.33,1637401960.78125
18.78,1637401960.796875
17.14,1637401960.8125
14.47,1637401960.828125
11.01,1637401960.84375
7.15,1637401960.859375
3.32,1637401960.875
-0.11,1637401960.890625
-2.88,1637401960.90625
-4.93,1637401960.921875
-6.45,1637401960.9375
-7.71,1637401960.953125
-9.0,1637401960.96875
-10.42,1637401960.984375
-11.93,1637401961.0
-13.27,1637401961.015625
-14.2,1637401961.03125
-14.65,1637401961.046875
-14.76,1637401961.0625
-14.88,1637401961.078125
-15.53,1637401961.09375
-17.16,1637401961.109375
-20.04,1637401961.125
-24.09,1637401961.140625
-28.8,1637401961.15625
-33.2,1637401961.171875
-36.08,1637401961.1875
-36.2,1637401961.203125
-32.84,1637401961.21875
-26.0,1637401961.234375
-16.56,1637401961.25
-6.0,1637401961.265625
4.02,1637401961.28125
12.22,1637401961.296875
17.97,1637401961.3125
21.3,1637401961.328125
22.64,1637401961.34375
22.54,1637401961.359375
21.45,1637401961.375
19.71,1637401961.390625
17.6,1637401961.40625
15.44,1637401961.421875
13.56,1637401961.4375
12.2,1637401961.453125
11.44,1637401961.46875
11.19,1637401961.484375
11.27,1637401961.5
11.42,1637401961.515625
11.38,1637401961.53125
10.98,1637401961.546875
10.15,1637401961.5625
8.95,1637401961.578125
7.68,1637401961.59375
6.67,1637401961.609375
6.21,1637401961.625
6.36,1637401961.640625
6.88,1637401961.65625
7.37,1637401961.671875
7.46,1637401961.6875
6.98,1637401961.703125
6.08,1637401961.71875
5.1,1637401961.734375
4.34,1637401961.75
3.92,1637401961.765625
3.67,1637401961.78125
3.28,1637401961.796875
2.41,1637401961.8125
0.88,1637401961.828125
-1.26,1637401961.84375
-3.83,1637401961.859375
-6.5,1637401961.875
-8.97,1637401961.890625
-11.0,1637401961.90625
-12.49,1637401961.921875
-13.53,1637401961.9375
-14.38,1637401961.953125
-15.44,1637401961.96875
-17.08,1637401961.984375
-19.59,1637401962.0
-22.91,1637401962.015625
-26.62,1637401962.03125
-30.02,1637401962.046875
-32.25,1637401962.0625
-32.59,1637401962.078125
-30.65,1637401962.09375
-26.43,1637401962.109375
-20.32,1637401962.125
-12.98,1637401962.140625
-5.23,1637401962.15625
2.04,1637401962.171875
8.04,1637401962.1875
12.25,1637401962.203125
14.5,1637401962.21875
15.05,1637401962.234375
14.51,1637401962.25
13.56,1637401962.265625
12.67,1637401962.28125
11.98,1637401962.296875
11.31,1637401962.3125
10.47,1637401962.328125
9.5,1637401962.34375
8.69,1637401962.359375
8.46,1637401962.375
9.06,1637401962.390625
10.36,1637401962.40625
11.84,1637401962.421875
12.94,1637401962.4375
13.32,1637401962.453125
13.01,1637401962.46875
12.42,1637401962.484375
12.06,1637401962.5
12.31,1637401962.515625
13.25,1637401962.53125
14.74,1637401962.546875
16.53,1637401962.5625
18.38,1637401962.578125
20.2,1637401962.59375
22.01,1637401962.609375
23.86,1637401962.625
25.75,1637401962.640625
27.51,1637401962.65625
28.77,1637401962.671875
29.11,1637401962.6875
28.26,1637401962.703125
26.32,1637401962.71875
23.7,1637401962.734375
20.93,1637401962.75
18.36,1637401962.765625
15.94,1637401962.78125
13.35,1637401962.796875
10.19,1637401962.8125
6.37,1637401962.828125
2.14,1637401962.84375
-2.04,1637401962.859375
-5.82,1637401962.875
-9.15,1637401962.890625
-12.22,1637401962.90625
-15.27,1637401962.921875
-18.27,1637401962.9375
-20.92,1637401962.953125
-22.74,1637401962.96875
-23.43,1637401962.984375
-22.96,1637401963.0
-21.58,1637401963.015625
-19.74,1637401963.03125
-17.86,1637401963.046875
-16.19,1637401963.0625
-14.78,1637401963.078125
-13.53,1637401963.09375
-12.23,1637401963.109375
-10.66,1637401963.125
-8.72,1637401963.140625
-6.46,1637401963.15625
-4.11,1637401963.171875
-1.93,1637401963.1875
-0.12,1637401963.203125
1.3,1637401963.21875
2.48,1637401963.234375
3.67,1637401963.25
5.0,1637401963.265625
6.48,1637401963.28125
7.94,1637401963.296875
9.16,1637401963.3125
9.93,1637401963.328125
10.19,1637401963.34375
9.99,1637401963.359375
9.53,1637401963.375
9.01,1637401963.390625
8.62,1637401963.40625
8.39,1637401963.421875
8.27,1637401963.4375
8.08,1637401963.453125
7.65,1637401963.46875
6.86,1637401963.484375
5.68,1637401963.5
4.23,1637401963.515625
2.69,1637401963.53125
1.25,1637401963.546875
0.08,1637401963.5625
-0.76,1637401963.578125
-1.28,1637401963.59375
-1.6,1637401963.609375
-1.82,1637401963.625
-2.02,1637401963.640625
-2.15,1637401963.65625
-2.07,1637401963.671875
-1.7,1637401963.6875
-1.04,1637401963.703125
-0.35,1637401963.71875
0.13,1637401963.734375
0.21,1637401963.75
-0.15,1637401963.765625
-0.84,1637401963.78125
-1.79,1637401963.796875
-3.05,1637401963.8125
-4.74,1637401963.828125
-6.94,1637401963.84375
-9.54,1637401963.859375
-12.25,1637401963.875
-14.73,1637401963.890625
-16.83,1637401963.90625
-18.64,1637401963.921875
-20.42,1637401963.9375
-22.29,1637401963.953125
-24.03,1637401963.96875
-25.04,1637401963.984375
-24.71,1637401964.0
-22.7,1637401964.015625
-19.2,1637401964.03125
-14.87,1637401964.046875
-10.57,1637401964.0625
-6.89,1637401964.078125
-4.12,1637401964.09375
-2.18,1637401964.109375
-0.88,1637401964.125
-0.08,1637401964.140625
0.26,1637401964.15625
0.11,1637401964.171875
-0.45,1637401964.1875
-1.17,1637401964.203125
-1.72,1637401964.21875
-1.82,1637401964.234375
-1.39,1637401964.25
-0.65,1637401964.265625
-0.04,1637401964.28125
0.05,1637401964.296875
-0.66,1637401964.3125
-2.11,1637401964.328125
-3.97,1637401964.34375
