PPG GREEN,time
2234067.0,1637401885.47
2233975.0,1637401885.51
2233607.0,1637401885.549
2233811.0,1637401885.589
2233550.0,1637401885.63
2233827.0,1637401885.67
2233875.0,1637401885.709
2233854.0,1637401885.75
2234239.0,1637401885.789
2234073.0,1637401885.829
2232222.0,1637401885.871
2229525.0,1637401885.909
2227172.0,1637401885.949
2225457.0,1637401885.99
2223964.0,1637401886.029
2222092.0,1637401886.111
2222997.0,1637401886.071
2220993.0,1637401886.15
2220183.0,1637401886.19
2219463.0,1637401886.231
2218693.0,1637401886.271
2218122.0,1637401886.31
2217872.0,1637401886.351
2217799.0,1637401886.39
2217656.0,1637401886.43
2217989.0,1637401886.472
2218180.0,1637401886.51
2218195.0,1637401886.55
2217970.0,1637401886.591
2218190.0,1637401886.63
2218105.0,1637401886.671
2218372.0,1637401886.712
2218476.0,1637401886.751
2219208.0,1637401886.791
2219387.0,1637401886.832
2218859.0,1637401886.872
2216742.0,1637401886.911
2214219.0,1637401886.952
2214625.0,1637401886.991
2217032.0,1637401887.031
2215679.0,1637401887.073
2213248.0,1637401887.111
2210599.0,1637401887.151
2209645.0,1637401887.192
2211932.0,1637401887.231
2212997.0,1637401887.272
2213374.0,1637401887.313
2214319.0,1637401887.352
2215237.0,1637401887.392
2217458.0,1637401887.433
2219786.0,1637401887.472
2221488.0,1637401887.512
2223141.0,1637401887.553
2222357.0,1637401887.592
2222463.0,1637401887.632
2222864.0,1637401887.674
2223667.0,1637401887.712
2223515.0,1637401887.752
2222574.0,1637401887.793
2221587.0,1637401887.832
2221913.0,1637401887.873
2223620.0,1637401887.914
2223249.0,1637401887.953
2222544.0,1637401887.993
2221700.0,1637401888.034
2218726.0,1637401888.074
2215872.0,1637401888.113
2212292.0,1637401888.151
2217266.0,1637401888.19
2214860.0,1637401888.23
2211502.0,1637401888.272
2215732.0,1637401888.31
2218879.0,1637401888.35
2222034.0,1637401888.391
2222656.0,1637401888.43
2223841.0,1637401888.471
2225050.0,1637401888.512
2229011.0,1637401888.551
2230633.0,1637401888.591
2232331.0,1637401888.632
2230728.0,1637401888.671
2229016.0,1637401888.711
2239280.0,1637401888.752
2263245.0,1637401888.791
2276582.0,1637401888.832
2281350.0,1637401888.865
2279307.0,1637401888.901
2274822.0,1637401888.941
2270315.0,1637401888.983
2266783.0,1637401889.022
2265402.0,1637401889.063
2264319.0,1637401889.103
2262798.0,1637401889.143
2261619.0,1637401889.183
2260061.0,1637401889.224
2258448.0,1637401889.264
2256640.0,1637401889.301
2255462.0,1637401889.343
2255121.0,1637401889.382
2254267.0,1637401889.422
2253563.0,1637401889.464
2251409.0,1637401889.495
2248948.0,1637401889.535
2246873.0,1637401889.576
2245488.0,1637401889.616
2244087.0,1637401889.657
2243808.0,1637401889.697
2242344.0,1637401889.736
2241963.0,1637401889.776
2241318.0,1637401889.817
2240594.0,1637401889.857
2239860.0,1637401889.896
2239832.0,1637401889.937
2239447.0,1637401889.976
2239582.0,1637401890.016
2239177.0,1637401890.058
2239561.0,1637401890.097
2240102.0,1637401890.137
2240155.0,1637401890.179
2240698.0,1637401890.218
2241097.0,1637401890.256
2240837.0,1637401890.291
2240663.0,1637401890.325
2243362.0,1637401890.363
2246118.0,1637401890.404
2247301.0,1637401890.444
2247308.0,1637401890.484
2246418.0,1637401890.525
2244871.0,1637401890.564
2243379.0,1637401890.604
2241612.0,1637401890.646
2240824.0,1637401890.685
2240231.0,1637401890.722
2240753.0,1637401890.76
2241206.0,1637401890.799
2241514.0,1637401890.84
2243632.0,1637401890.88
2247382.0,1637401890.919
2253066.0,1637401890.96
2257172.0,1637401891.001
2258208.0,1637401891.04
2273744.0,1637401891.08
2279695.0,1637401891.121
2281379.0,1637401891.16
2278545.0,1637401891.2
2276064.0,1637401891.242
2272766.0,1637401891.28
2269280.0,1637401891.32
2266519.0,1637401891.361
2265385.0,1637401891.4
2265712.0,1637401891.442
2265976.0,1637401891.483
2266079.0,1637401891.522
2266201.0,1637401891.562
2267007.0,1637401891.604
2267499.0,1637401891.644
2268001.0,1637401891.684
2267664.0,1637401891.725
2267495.0,1637401891.764
2266513.0,1637401891.803
2266062.0,1637401891.837
2265354.0,1637401891.875
2265655.0,1637401891.915
2266335.0,1637401891.956
2266443.0,1637401891.995
2265756.0,1637401892.036
2265019.0,1637401892.077
2264130.0,1637401892.116
2263300.0,1637401892.156
2262666.0,1637401892.197
2262359.0,1637401892.236
2261894.0,1637401892.276
2261725.0,1637401892.317
2262325.0,1637401892.356
2262727.0,1637401892.396
2262999.0,1637401892.438
2263645.0,1637401892.476
2264035.0,1637401892.513
2264630.0,1637401892.545
2265491.0,1637401892.584
2265553.0,1637401892.625
2265621.0,1637401892.666
2267042.0,1637401892.705
2268069.0,1637401892.745
2268900.0,1637401892.784
2269311.0,1637401892.824
2270244.0,1637401892.864
2270578.0,1637401892.905
2270334.0,1637401892.944
2272329.0,1637401892.984
2274889.0,1637401893.026
2274889.0,1637401893.061
2275688.0,1637401893.101
2275805.0,1637401893.142
2276045.0,1637401893.181
2276482.0,1637401893.222
2276621.0,1637401893.262
2278490.0,1637401893.301
2280793.0,1637401893.341
2281640.0,1637401893.382
2282586.0,1637401893.422
2282648.0,1637401893.461
2280463.0,1637401893.502
2277562.0,1637401893.541
2274682.0,1637401893.583
2275268.0,1637401893.625
2276699.0,1637401893.664
2276429.0,1637401893.704
2274941.0,1637401893.745
2272602.0,1637401893.784
2269862.0,1637401893.825
2266599.0,1637401893.865
2265714.0,1637401893.904
2266375.0,1637401893.944
2275568.0,1637401893.985
2279568.0,1637401894.025
2281865.0,1637401894.066
2280988.0,1637401894.107
2280091.0,1637401894.146
2283365.0,1637401894.186
2304604.0,1637401894.228
2318869.0,1637401894.266
2329283.0,1637401894.301
2317362.0,1637401894.381
2314116.0,1637401894.422
2324073.0,1637401894.342
2311362.0,1637401894.462
2308605.0,1637401894.502
2306544.0,1637401894.542
2303118.0,1637401894.583
2300976.0,1637401894.622
2300518.0,1637401894.662
2300220.0,1637401894.703
2299434.0,1637401894.742
2298589.0,1637401894.782
2300794.0,1637401895.145
2295166.0,1637401895.428
2300893.0,1637401895.104
2294662.0,1637401895.466
2294403.0,1637401895.506
2296878.0,1637401894.902
2301551.0,1637401895.186
2298103.0,1637401895.307
2300347.0,1637401895.065
2301215.0,1637401895.225
2294236.0,1637401895.547
2299594.0,1637401895.265
2299717.0,1637401895.024
2297424.0,1637401894.825
2299403.0,1637401894.983
2297987.0,1637401894.944
2295779.0,1637401895.387
2296779.0,1637401895.347
2296473.0,1637401894.862
2293772.0,1637401895.586
2293233.0,1637401895.627
2293201.0,1637401895.668
2293351.0,1637401895.707
2293003.0,1637401895.747
2292933.0,1637401895.788
2293092.0,1637401895.827
2293338.0,1637401895.867
2293494.0,1637401895.908
2293888.0,1637401895.947
2294094.0,1637401895.987
2293834.0,1637401896.029
2292465.0,1637401896.067
2290876.0,1637401896.107
2288822.0,1637401896.187
2288219.0,1637401896.228
2287182.0,1637401896.269
2285826.0,1637401896.308
2285073.0,1637401896.348
2284703.0,1637401896.39
2284274.0,1637401896.429
2285075.0,1637401896.469
2289894.0,1637401896.148
2285551.0,1637401896.51
2288330.0,1637401896.549
2289626.0,1637401896.631
2290119.0,1637401896.67
2288818.0,1637401896.59
2289966.0,1637401896.71
2289585.0,1637401896.79
2290044.0,1637401896.831
2291325.0,1637401896.871
2292055.0,1637401896.91
2292049.0,1637401896.95
2290679.0,1637401896.991
2289762.0,1637401896.751
2296632.0,1637401897.031
2315399.0,1637401897.07
2324796.0,1637401897.111
2328208.0,1637401897.151
2328728.0,1637401897.191
2326758.0,1637401897.232
2323532.0,1637401897.27
2320563.0,1637401897.308
2318645.0,1637401897.349
2317933.0,1637401897.388
2316976.0,1637401897.429
2316346.0,1637401897.469
2315894.0,1637401897.509
2315414.0,1637401897.549
2315090.0,1637401897.59
2315218.0,1637401897.63
2315218.0,1637401897.67
2315342.0,1637401897.711
2314681.0,1637401897.747
2313552.0,1637401897.787
2310618.0,1637401897.867
2310026.0,1637401897.908
2311996.0,1637401897.829
2309930.0,1637401897.949
2310219.0,1637401897.988
2309839.0,1637401898.028
2309541.0,1637401898.069
2308933.0,1637401898.108
2308429.0,1637401898.148
2308082.0,1637401898.189
2308101.0,1637401898.229
2308230.0,1637401898.268
2308347.0,1637401898.309
2308645.0,1637401898.348
2308989.0,1637401898.388
2309423.0,1637401898.43
2309738.0,1637401898.468
2310129.0,1637401898.509
2310060.0,1637401898.55
2308617.0,1637401898.589
2307008.0,1637401898.63
2305869.0,1637401898.671
2305086.0,1637401898.71
2304634.0,1637401898.75
2304271.0,1637401898.789
2303747.0,1637401898.829
2303671.0,1637401898.869
2303461.0,1637401898.91
2303123.0,1637401898.949
2301277.0,1637401898.99
2299727.0,1637401899.031
2298374.0,1637401899.07
2297586.0,1637401899.11
2297084.0,1637401899.152
2296682.0,1637401899.189
2296890.0,1637401899.23
2296849.0,1637401899.27
2299418.0,1637401899.309
2302013.0,1637401899.35
2304657.0,1637401899.391
2304744.0,1637401899.431
2304149.0,1637401899.47
2303412.0,1637401899.511
2302654.0,1637401899.551
2304100.0,1637401899.589
2315941.0,1637401899.631
2326336.0,1637401899.669
2331289.0,1637401899.71
2330189.0,1637401899.751
2326485.0,1637401899.79
2324168.0,1637401899.831
2320458.0,1637401899.869
2318686.0,1637401899.908
2317704.0,1637401899.949
2318247.0,1637401899.991
2317697.0,1637401900.03
2316305.0,1637401900.069
2317145.0,1637401900.11
2318377.0,1637401900.14
2319504.0,1637401900.18
2318721.0,1637401900.222
2318256.0,1637401900.261
2318075.0,1637401900.301
2317841.0,1637401900.342
2318123.0,1637401900.381
2319005.0,1637401900.422
2321097.0,1637401900.462
2326751.0,1637401900.501
2338349.0,1637401900.541
2344141.0,1637401900.582
2345844.0,1637401900.622
2344298.0,1637401900.661
2342291.0,1637401900.702
2342336.0,1637401900.741
2340913.0,1637401900.781
2338063.0,1637401900.824
2336480.0,1637401900.858
2335458.0,1637401900.892
2333940.0,1637401900.932
2331342.0,1637401900.971
2328285.0,1637401901.012
2325717.0,1637401901.052
2324207.0,1637401901.091
2323003.0,1637401901.132
2321821.0,1637401901.173
2321113.0,1637401901.213
2319783.0,1637401901.251
2319078.0,1637401901.292
2318709.0,1637401901.331
2318403.0,1637401901.372
2318306.0,1637401901.413
2320297.0,1637401901.452
2322179.0,1637401901.492
2329022.0,1637401901.533
2338494.0,1637401901.572
2341344.0,1637401901.614
2339810.0,1637401901.653
2337590.0,1637401901.692
2335949.0,1637401901.732
2333898.0,1637401901.773
2334141.0,1637401901.813
2338335.0,1637401901.852
2338029.0,1637401901.893
2337874.0,1637401901.932
2339612.0,1637401901.971
2340068.0,1637401902.013
2337725.0,1637401902.051
2334835.0,1637401902.092
2331997.0,1637401902.133
2329087.0,1637401902.172
2328162.0,1637401902.213
2329245.0,1637401902.254
2327987.0,1637401902.293
2323567.0,1637401902.333
2320340.0,1637401902.369
2318271.0,1637401902.409
2315244.0,1637401902.448
2312517.0,1637401902.489
2311284.0,1637401902.528
2309456.0,1637401902.568
2307316.0,1637401902.61
2305507.0,1637401902.648
2305533.0,1637401902.689
2304920.0,1637401902.73
2310839.0,1637401902.769
2332543.0,1637401902.809
2343778.0,1637401902.85
2348726.0,1637401902.889
2348152.0,1637401902.929
2344180.0,1637401902.97
2338519.0,1637401903.01
2333547.0,1637401903.049
2332459.0,1637401903.091
2333239.0,1637401903.131
2331151.0,1637401903.171
2328265.0,1637401903.213
2324485.0,1637401903.251
2320856.0,1637401903.292
2317629.0,1637401903.333
2315542.0,1637401903.372
2314174.0,1637401903.413
2314937.0,1637401903.454
2317356.0,1637401903.493
2318302.0,1637401903.529
2318991.0,1637401903.571
2319815.0,1637401903.611
2320361.0,1637401903.65
2320355.0,1637401903.691
2320559.0,1637401903.73
2320815.0,1637401903.77
2321683.0,1637401903.812
2322037.0,1637401903.85
2322293.0,1637401903.89
2321680.0,1637401903.931
2319861.0,1637401903.97
2318149.0,1637401904.011
2317069.0,1637401904.051
2315703.0,1637401904.09
2314452.0,1637401904.13
2313568.0,1637401904.171
2312121.0,1637401904.211
2310715.0,1637401904.252
2308923.0,1637401904.293
2307238.0,1637401904.332
2305624.0,1637401904.372
2304618.0,1637401904.414
2303716.0,1637401904.453
2302980.0,1637401904.493
2302960.0,1637401904.534
2302840.0,1637401904.573
2303163.0,1637401904.614
2303175.0,1637401904.655
2302274.0,1637401904.692
2300237.0,1637401904.733
2297895.0,1637401904.774
2295861.0,1637401904.814
2294723.0,1637401904.853
2296206.0,1637401904.895
2298636.0,1637401904.934
2305254.0,1637401904.974
2313160.0,1637401905.015
2317559.0,1637401905.053
2324296.0,1637401905.093
2330369.0,1637401905.135
2335244.0,1637401905.174
2336395.0,1637401905.215
2340946.0,1637401905.256
2343153.0,1637401905.295
2344183.0,1637401905.335
2345282.0,1637401905.376
2344084.0,1637401905.416
2338766.0,1637401905.455
2332906.0,1637401905.496
2326542.0,1637401905.535
2321545.0,1637401905.583
2317735.0,1637401905.625
2315520.0,1637401905.663
2314076.0,1637401905.703
2313026.0,1637401905.744
2312062.0,1637401905.783
2311031.0,1637401905.824
2309867.0,1637401905.865
2309204.0,1637401905.904
2308711.0,1637401905.944
2308764.0,1637401905.985
2308845.0,1637401906.025
2308981.0,1637401906.144
2309395.0,1637401906.184
2308766.0,1637401906.226
2308832.0,1637401906.105
2306504.0,1637401906.264
2303941.0,1637401906.304
2301673.0,1637401906.345
2300019.0,1637401906.384
2298486.0,1637401906.425
2297419.0,1637401906.466
2296515.0,1637401906.505
2295555.0,1637401906.545
2294662.0,1637401906.586
2293479.0,1637401906.625
2293212.0,1637401906.665
2308858.0,1637401906.064
2292613.0,1637401906.706
2292101.0,1637401906.745
2291749.0,1637401906.905
2291853.0,1637401906.865
2291877.0,1637401906.946
2290340.0,1637401906.985
2288888.0,1637401907.026
2288126.0,1637401907.066
2287699.0,1637401907.105
2287104.0,1637401907.145
2317247.0,1637401907.266
2302819.0,1637401907.226
2326268.0,1637401907.307
2331219.0,1637401907.346
2291942.0,1637401906.827
2288254.0,1637401907.187
2336018.0,1637401907.386
2337109.0,1637401907.428
2341494.0,1637401907.466
2292174.0,1637401906.785
2344988.0,1637401907.506
2350145.0,1637401907.547
2350813.0,1637401907.586
2347928.0,1637401907.627
2345639.0,1637401907.667
2340741.0,1637401907.706
2334686.0,1637401907.746
2328224.0,1637401907.788
2324417.0,1637401907.827
2320489.0,1637401907.867
2319087.0,1637401907.908
2318297.0,1637401907.947
2317616.0,1637401907.987
2317119.0,1637401908.067
2317424.0,1637401908.029
2316824.0,1637401908.107
2316267.0,1637401908.148
2315809.0,1637401908.187
2313756.0,1637401908.307
2311446.0,1637401908.347
2314690.0,1637401908.268
2315046.0,1637401908.228
2307681.0,1637401908.389
2304308.0,1637401908.428
2300864.0,1637401908.468
2298084.0,1637401908.509
2296104.0,1637401908.548
2294793.0,1637401908.588
2293465.0,1637401908.63
2292121.0,1637401908.668
2291185.0,1637401908.709
2290159.0,1637401908.751
2289633.0,1637401908.784
2288698.0,1637401908.864
2289218.0,1637401908.823
2288355.0,1637401908.943
2288452.0,1637401908.903
2287693.0,1637401908.985
2285362.0,1637401909.024
2282149.0,1637401909.064
2279600.0,1637401909.106
2277282.0,1637401909.145
2274348.0,1637401909.225
2275570.0,1637401909.183
2273779.0,1637401909.263
2271702.0,1637401909.345
2272979.0,1637401909.304
2270250.0,1637401909.384
2271011.0,1637401909.425
2273636.0,1637401909.466
2275681.0,1637401909.505
2275302.0,1637401909.542
2277695.0,1637401909.583
2279787.0,1637401909.623
2277432.0,1637401909.662
2272724.0,1637401909.703
2269099.0,1637401909.742
2275129.0,1637401909.782
2279171.0,1637401909.824
2280940.0,1637401909.862
2279981.0,1637401909.903
2280763.0,1637401909.944
2279641.0,1637401909.983
2278196.0,1637401910.023
2275886.0,1637401910.064
2273728.0,1637401910.103
2271221.0,1637401910.143
2270307.0,1637401910.184
2269525.0,1637401910.224
2268891.0,1637401910.264
2266316.0,1637401910.305
2262306.0,1637401910.344
2259037.0,1637401910.385
2255547.0,1637401910.427
2252614.0,1637401910.463
2250263.0,1637401910.504
2248406.0,1637401910.545
2246440.0,1637401910.584
2244382.0,1637401910.625
2242569.0,1637401910.666
2240950.0,1637401910.705
2239602.0,1637401910.745
2238931.0,1637401910.785
2237818.0,1637401910.824
2236776.0,1637401910.863
2235880.0,1637401910.896
2234744.0,1637401910.935
2231202.0,1637401910.976
2226905.0,1637401911.017
2222544.0,1637401911.056
2218928.0,1637401911.096
2216443.0,1637401911.137
2214588.0,1637401911.176
2212864.0,1637401911.217
2211125.0,1637401911.257
2209585.0,1637401911.296
2208223.0,1637401911.336
2206996.0,1637401911.377
2205882.0,1637401911.417
2205167.0,1637401911.456
2204614.0,1637401911.498
2204107.0,1637401911.537
2204449.0,1637401911.574
2204039.0,1637401911.61
2201227.0,1637401911.645
2198396.0,1637401911.683
2195616.0,1637401911.724
2193551.0,1637401911.763
2192837.0,1637401911.804
2193715.0,1637401911.845
2194156.0,1637401911.884
2200670.0,1637401911.924
2207960.0,1637401911.966
2213818.0,1637401912.005
2217193.0,1637401912.045
2216932.0,1637401912.086
2221786.0,1637401912.125
2228744.0,1637401912.165
2232531.0,1637401912.207
2233791.0,1637401912.245
2233416.0,1637401912.285
2229873.0,1637401912.326
2224398.0,1637401912.365
2218346.0,1637401912.406
2213023.0,1637401912.447
2209354.0,1637401912.486
2205991.0,1637401912.526
2203702.0,1637401912.567
2201921.0,1637401912.606
2199943.0,1637401912.646
2198900.0,1637401912.687
2198302.0,1637401912.722
2197780.0,1637401912.764
2197281.0,1637401912.805
2197451.0,1637401912.843
2197199.0,1637401912.884
2197208.0,1637401912.925
2196881.0,1637401912.964
2197110.0,1637401913.005
2197066.0,1637401913.046
2195829.0,1637401913.085
2193176.0,1637401913.125
2190600.0,1637401913.167
2188199.0,1637401913.204
2188199.0,1637401913.24
2186489.0,1637401913.281
2185425.0,1637401913.32
2184665.0,1637401913.36
2184171.0,1637401913.402
2183346.0,1637401913.44
2182891.0,1637401913.48
2182818.0,1637401913.521
2182433.0,1637401913.56
2182667.0,1637401913.601
2182540.0,1637401913.642
2182851.0,1637401913.681
2183180.0,1637401913.721
2183650.0,1637401913.762
2183773.0,1637401913.802
2184141.0,1637401913.841
2182983.0,1637401913.882
2181645.0,1637401913.921
2180914.0,1637401913.96
2180666.0,1637401913.999
2182276.0,1637401914.038
2186020.0,1637401914.073
2188510.0,1637401914.108
2189119.0,1637401914.145
2190357.0,1637401914.186
2191876.0,1637401914.227
2194452.0,1637401914.266
2194281.0,1637401914.306
2190587.0,1637401914.348
2188250.0,1637401914.387
2188786.0,1637401914.427
2189648.0,1637401914.468
2187863.0,1637401914.505
2185589.0,1637401914.545
2181614.0,1637401914.577
2183868.0,1637401914.616
2214003.0,1637401914.656
2240783.0,1637401914.697
2255715.0,1637401914.736
2256146.0,1637401914.777
2253454.0,1637401914.817
2248589.0,1637401914.856
2244099.0,1637401914.896
2240975.0,1637401914.937
2238091.0,1637401914.977
2236101.0,1637401915.017
2234671.0,1637401915.058
2234304.0,1637401915.097
2234688.0,1637401915.137
2234215.0,1637401915.179
2232646.0,1637401915.217
2230611.0,1637401915.251
2228300.0,1637401915.285
2226596.0,1637401915.324
2224606.0,1637401915.366
2223218.0,1637401915.406
2221891.0,1637401915.445
2221759.0,1637401915.485
2222082.0,1637401915.526
2222100.0,1637401915.567
2222902.0,1637401915.606
2223158.0,1637401915.647
2223530.0,1637401915.686
2223952.0,1637401915.727
2224127.0,1637401915.767
2223990.0,1637401915.805
2223056.0,1637401915.845
2220940.0,1637401915.887
2219354.0,1637401915.926
2217769.0,1637401915.967
2216927.0,1637401916.007
2216927.0,1637401916.041
2216065.0,1637401916.082
2215555.0,1637401916.123
2215408.0,1637401916.162
2215247.0,1637401916.202
2215079.0,1637401916.243
2214782.0,1637401916.282
2214769.0,1637401916.322
2214964.0,1637401916.364
2215122.0,1637401916.402
2216180.0,1637401916.442
2215884.0,1637401916.483
2216787.0,1637401916.523
2220380.0,1637401916.563
2223305.0,1637401916.604
2224000.0,1637401916.643
2224967.0,1637401916.683
2229597.0,1637401916.724
2239812.0,1637401916.764
2250682.0,1637401916.804
2259578.0,1637401916.846
2269045.0,1637401916.885
2272839.0,1637401916.926
2271028.0,1637401916.967
2272419.0,1637401917.006
2283975.0,1637401917.046
2290441.0,1637401917.087
2292151.0,1637401917.126
2288257.0,1637401917.161
2281814.0,1637401917.201
2273434.0,1637401917.24
2268194.0,1637401917.281
2263052.0,1637401917.322
2259315.0,1637401917.361
2256862.0,1637401917.401
2254779.0,1637401917.442
2254080.0,1637401917.481
2253364.0,1637401917.522
2250917.0,1637401917.642
2248183.0,1637401917.683
2245237.0,1637401917.722
2243523.0,1637401917.763
2252763.0,1637401917.564
2241542.0,1637401917.804
2240551.0,1637401917.843
2239737.0,1637401917.883
2238657.0,1637401917.924
2238045.0,1637401917.964
2237685.0,1637401918.004
2252139.0,1637401917.602
2237259.0,1637401918.044
2237533.0,1637401918.083
2237526.0,1637401918.12
2237867.0,1637401918.157
2238165.0,1637401918.195
2233776.0,1637401918.303
2231733.0,1637401918.344
2230662.0,1637401918.385
2230083.0,1637401918.424
2229750.0,1637401918.464
2229353.0,1637401918.505
2229177.0,1637401918.584
2229299.0,1637401918.625
2229512.0,1637401918.664
2229327.0,1637401918.545
2235831.0,1637401918.264
2237715.0,1637401918.229
2229590.0,1637401918.704
2230052.0,1637401918.746
2230511.0,1637401918.784
2231323.0,1637401918.824
2230157.0,1637401918.866
2228612.0,1637401918.905
2227378.0,1637401918.939
2227751.0,1637401918.974
2230364.0,1637401919.01
2228624.0,1637401919.048
2226565.0,1637401919.089
2226022.0,1637401919.129
2226163.0,1637401919.168
2226423.0,1637401919.21
2225747.0,1637401919.249
2224186.0,1637401919.289
2224971.0,1637401919.331
2227239.0,1637401919.37
2250198.0,1637401919.408
2265727.0,1637401919.449
2270039.0,1637401919.488
2268666.0,1637401919.529
2266147.0,1637401919.568
2266147.0,1637401919.6
2259626.0,1637401919.682
2256901.0,1637401919.721
2255081.0,1637401919.761
2253848.0,1637401919.802
2263045.0,1637401919.64
2254255.0,1637401919.841
2254387.0,1637401919.881
2253743.0,1637401919.923
2253412.0,1637401919.961
2252892.0,1637401920.001
2252532.0,1637401920.042
2250492.0,1637401920.081
2248137.0,1637401920.122
2245543.0,1637401920.162
2243339.0,1637401920.201
2241275.0,1637401920.241
2239956.0,1637401920.319
2240082.0,1637401920.399
2240321.0,1637401920.432
2240191.0,1637401920.359
2240136.0,1637401920.284
2240756.0,1637401920.471
2241092.0,1637401920.511
2242117.0,1637401920.59
2241340.0,1637401920.55
2242305.0,1637401920.671
2242585.0,1637401920.631
2240767.0,1637401920.71
2239295.0,1637401920.751
2238156.0,1637401920.79
2237042.0,1637401920.83
2236760.0,1637401920.871
2237116.0,1637401920.911
2237090.0,1637401920.95
2237107.0,1637401920.991
2237458.0,1637401921.03
2237667.0,1637401921.07
2238080.0,1637401921.112
2238545.0,1637401921.151
2239188.0,1637401921.191
2240038.0,1637401921.232
2240654.0,1637401921.271
2241046.0,1637401921.311
2244686.0,1637401921.352
2249559.0,1637401921.391
2253781.0,1637401921.429
2258598.0,1637401921.471
2262534.0,1637401921.51
2264761.0,1637401921.55
2265705.0,1637401921.592
2266379.0,1637401921.631
2266584.0,1637401921.671
2265911.0,1637401921.713
2264608.0,1637401921.751
2263072.0,1637401921.792
2272492.0,1637401921.831
2286650.0,1637401921.87
2293103.0,1637401921.911
2292546.0,1637401921.952
2290043.0,1637401921.991
2287696.0,1637401922.03
2286445.0,1637401922.064
2289392.0,1637401922.104
2290815.0,1637401922.143
2290651.0,1637401922.184
2290586.0,1637401922.223
2290318.0,1637401922.263
2289612.0,1637401922.305
2288935.0,1637401922.343
2289012.0,1637401922.383
2288603.0,1637401922.424
2289186.0,1637401922.463
2289792.0,1637401922.504
2288764.0,1637401922.545
2287382.0,1637401922.583
2286364.0,1637401922.624
2285985.0,1637401922.665
2285069.0,1637401922.704
2284401.0,1637401922.744
2283781.0,1637401922.785
2283441.0,1637401922.824
2283322.0,1637401922.864
2283149.0,1637401922.906
2283029.0,1637401922.94
2283115.0,1637401922.975
2283213.0,1637401923.013
2283634.0,1637401923.05
2283995.0,1637401923.09
2283049.0,1637401923.131
2281891.0,1637401923.17
2280282.0,1637401923.211
2279903.0,1637401923.253
2279650.0,1637401923.29
2279575.0,1637401923.329
2279710.0,1637401923.37
2279898.0,1637401923.409
2280055.0,1637401923.449
2280117.0,1637401923.491
2280346.0,1637401923.529
2280601.0,1637401923.569
2281172.0,1637401923.61
2281765.0,1637401923.649
2282351.0,1637401923.69
2281750.0,1637401923.731
2279705.0,1637401923.77
2277363.0,1637401923.81
2276041.0,1637401923.851
2276444.0,1637401923.891
2276570.0,1637401923.93
2275754.0,1637401923.971
2277502.0,1637401924.01
2282816.0,1637401924.05
2295991.0,1637401924.092
2303383.0,1637401924.131
2306370.0,1637401924.171
2305892.0,1637401924.212
2304500.0,1637401924.252
2302679.0,1637401924.293
2301944.0,1637401924.331
2301279.0,1637401924.37
2301279.0,1637401924.407
2299755.0,1637401924.449
2296383.0,1637401924.488
2294515.0,1637401924.528
2293583.0,1637401924.569
2292909.0,1637401924.608
2292455.0,1637401924.648
2291999.0,1637401924.69
2291297.0,1637401924.728
2290514.0,1637401924.768
2290433.0,1637401924.809
2290695.0,1637401924.848
2291034.0,1637401924.889
2291032.0,1637401924.929
2291367.0,1637401924.968
2290824.0,1637401925.009
2289337.0,1637401925.05
2287930.0,1637401925.089
2286754.0,1637401925.129
2286043.0,1637401925.171
2285803.0,1637401925.211
2285862.0,1637401925.251
2285891.0,1637401925.292
2286398.0,1637401925.331
2286618.0,1637401925.371
2287058.0,1637401925.412
2287737.0,1637401925.451
2287985.0,1637401925.492
2288656.0,1637401925.533
2289204.0,1637401925.572
2288645.0,1637401925.612
2286894.0,1637401925.649
2284858.0,1637401925.689
2283770.0,1637401925.728
2282722.0,1637401925.769
2283148.0,1637401925.808
2284124.0,1637401925.848
2284387.0,1637401925.89
2284920.0,1637401925.928
2285491.0,1637401925.969
2286246.0,1637401926.01
2288929.0,1637401926.049
2293281.0,1637401926.09
2301411.0,1637401926.13
2310007.0,1637401926.169
2320760.0,1637401926.209
2330934.0,1637401926.25
2339238.0,1637401926.29
2340368.0,1637401926.33
2344368.0,1637401926.372
2349002.0,1637401926.411
2351406.0,1637401926.452
2353284.0,1637401926.493
2351112.0,1637401926.531
2346158.0,1637401926.572
2341892.0,1637401926.613
2337607.0,1637401926.652
2334732.0,1637401926.693
2331005.0,1637401926.734
2326855.0,1637401926.773
2323675.0,1637401926.813
2320906.0,1637401926.852
2318435.0,1637401926.892
2317679.0,1637401926.931
2318964.0,1637401926.973
2319313.0,1637401927.012
2319637.0,1637401927.052
2319164.0,1637401927.093
2319000.0,1637401927.132
2318779.0,1637401927.172
2318609.0,1637401927.213
2318935.0,1637401927.252
2318124.0,1637401927.293
2315638.0,1637401927.333
2312832.0,1637401927.372
2310142.0,1637401927.412
2307714.0,1637401927.453
2305916.0,1637401927.493
2305109.0,1637401927.532
2304587.0,1637401927.574
2304085.0,1637401927.613
2303786.0,1637401927.653
2303556.0,1637401927.695
2302889.0,1637401927.734
2303235.0,1637401927.772
2303280.0,1637401927.813
2302184.0,1637401927.852
2298858.0,1637401927.893
2295398.0,1637401927.934
2292672.0,1637401927.973
2290483.0,1637401928.01
2289425.0,1637401928.051
2289215.0,1637401928.091
2289348.0,1637401928.13
2288509.0,1637401928.171
2287036.0,1637401928.21
2288768.0,1637401928.25
2287943.0,1637401928.292
2287723.0,1637401928.33
2289540.0,1637401928.37
2289457.0,1637401928.411
2287201.0,1637401928.451
2284624.0,1637401928.491
2293816.0,1637401928.532
2304244.0,1637401928.571
2309876.0,1637401928.611
2311050.0,1637401928.652
2310267.0,1637401928.692
2309513.0,1637401928.732
2308420.0,1637401928.774
2306455.0,1637401928.812
2304797.0,1637401928.852
2302365.0,1637401928.894
2300212.0,1637401928.933
2297381.0,1637401928.973
2294065.0,1637401929.014
2290778.0,1637401929.054
2287917.0,1637401929.095
2285847.0,1637401929.133
2285200.0,1637401929.172
2285496.0,1637401929.212
2285744.0,1637401929.253
2285902.0,1637401929.293
2286433.0,1637401929.332
2286807.0,1637401929.373
2286960.0,1637401929.412
2287015.0,1637401929.487
2287854.0,1637401929.529
2286096.0,1637401929.567
2282337.0,1637401929.607
2278162.0,1637401929.648
2274808.0,1637401929.687
2272940.0,1637401929.728
2271899.0,1637401929.769
2271478.0,1637401929.808
2271167.0,1637401929.848
2270878.0,1637401929.889
2270625.0,1637401929.928
2270556.0,1637401929.968
2270533.0,1637401930.009
2270929.0,1637401930.049
2269545.0,1637401930.089
2265994.0,1637401930.131
2262423.0,1637401930.169
2259055.0,1637401930.209
2257240.0,1637401930.248
2256558.0,1637401930.283
2256264.0,1637401930.323
2256104.0,1637401930.364
2256435.0,1637401930.403
2256676.0,1637401930.443
2258952.0,1637401930.484
2262550.0,1637401930.524
2266847.0,1637401930.563
2268380.0,1637401930.604
2268484.0,1637401930.643
2268352.0,1637401930.683
2268912.0,1637401930.725
2269727.0,1637401930.763
2271301.0,1637401930.803
2273233.0,1637401930.844
2273580.0,1637401930.883
2275241.0,1637401930.924
2276224.0,1637401930.966
2277328.0,1637401931.003
2276816.0,1637401931.038
2275878.0,1637401931.071
2274989.0,1637401931.11
2272157.0,1637401931.15
2270377.0,1637401931.191
2267537.0,1637401931.23
2274884.0,1637401931.271
2284007.0,1637401931.313
2289204.0,1637401931.351
2292798.0,1637401931.39
2294357.0,1637401931.431
2292704.0,1637401931.47
2289558.0,1637401931.511
2285055.0,1637401931.552
2279078.0,1637401931.59
2275115.0,1637401931.622
2270581.0,1637401931.663
2265319.0,1637401931.703
2261081.0,1637401931.742
2257489.0,1637401931.783
2254629.0,1637401931.822
2253626.0,1637401931.862
2253982.0,1637401931.904
2254050.0,1637401931.943
2253469.0,1637401931.983
2252841.0,1637401932.024
2251687.0,1637401932.063
2250780.0,1637401932.103
2249784.0,1637401932.144
2249068.0,1637401932.223
2249488.0,1637401932.183
2246683.0,1637401932.264
2241732.0,1637401932.301
2236467.0,1637401932.333
2232389.0,1637401932.373
2229861.0,1637401932.409
2228314.0,1637401932.449
2227115.0,1637401932.492
2226798.0,1637401932.53
2226665.0,1637401932.57
2225999.0,1637401932.611
2225672.0,1637401932.651
2225297.0,1637401932.692
2225380.0,1637401932.73
2225217.0,1637401932.769
2225856.0,1637401932.81
2226475.0,1637401932.851
2224595.0,1637401932.891
2224595.0,1637401932.925
2220117.0,1637401932.966
2215934.0,1637401933.005
2213106.0,1637401933.045
2211990.0,1637401933.087
2213536.0,1637401933.125
2216617.0,1637401933.165
2215831.0,1637401933.207
2216937.0,1637401933.246
2220648.0,1637401933.286
2224274.0,1637401933.327
2228281.0,1637401933.366
2230587.0,1637401933.406
2233660.0,1637401933.447
2242840.0,1637401933.487
2257417.0,1637401933.526
2265815.0,1637401933.567
2267340.0,1637401933.606
2266308.0,1637401933.647
2264696.0,1637401933.689
2261750.0,1637401933.728
2260738.0,1637401933.768
2258485.0,1637401933.809
2255975.0,1637401933.849
2254017.0,1637401933.89
2252700.0,1637401933.931
2252356.0,1637401933.97
2252780.0,1637401934.01
2253116.0,1637401934.051
2253255.0,1637401934.091
2253435.0,1637401934.13
2254403.0,1637401934.167
2253913.0,1637401934.206
2251627.0,1637401934.246
2248421.0,1637401934.287
2246598.0,1637401934.326
2245944.0,1637401934.366
2245918.0,1637401934.407
2246464.0,1637401934.446
2247135.0,1637401934.487
2247200.0,1637401934.527
2247508.0,1637401934.566
2248152.0,1637401934.606
2248843.0,1637401934.647
2249051.0,1637401934.687
2250217.0,1637401934.726
2250954.0,1637401934.768
2251208.0,1637401934.807
2249194.0,1637401934.847
2246814.0,1637401934.882
2244513.0,1637401934.914
2243302.0,1637401934.954
2242874.0,1637401934.994
2243177.0,1637401935.031
2243787.0,1637401935.072
2244332.0,1637401935.113
2244789.0,1637401935.152
2245267.0,1637401935.192
2246382.0,1637401935.234
2247181.0,1637401935.273
2248535.0,1637401935.313
2251679.0,1637401935.354
2261924.0,1637401935.385
2268957.0,1637401935.426
2271361.0,1637401935.467
2272834.0,1637401935.506
2274258.0,1637401935.546
2276091.0,1637401935.587
2279025.0,1637401935.626
2282375.0,1637401935.667
2283961.0,1637401935.707
2285406.0,1637401935.746
2281062.0,1637401935.786
2284661.0,1637401935.827
2289168.0,1637401935.867
2291439.0,1637401935.906
2291998.0,1637401935.947
2292371.0,1637401935.987
2292138.0,1637401936.027
2292010.0,1637401936.068
2290883.0,1637401936.106
2288091.0,1637401936.143
2283111.0,1637401936.185
2277493.0,1637401936.218
2274303.0,1637401936.254
2272705.0,1637401936.292
2271911.0,1637401936.331
2271353.0,1637401936.371
2270855.0,1637401936.413
2270616.0,1637401936.454
2270659.0,1637401936.492
2270427.0,1637401936.534
2269986.0,1637401936.573
2269689.0,1637401936.611
2270013.0,1637401936.653
2270185.0,1637401936.692
2269935.0,1637401936.732
2270354.0,1637401936.773
2270781.0,1637401936.812
2269461.0,1637401936.853
2266854.0,1637401936.893
2264774.0,1637401936.932
2263924.0,1637401936.972
2263133.0,1637401937.014
2263494.0,1637401937.053
2264282.0,1637401937.093
2264741.0,1637401937.134
2265133.0,1637401937.173
2265296.0,1637401937.213
2265458.0,1637401937.255
2266203.0,1637401937.293
2266720.0,1637401937.333
2267175.0,1637401937.374
2267926.0,1637401937.413
2269025.0,1637401937.454
2267791.0,1637401937.494
2265543.0,1637401937.533
2263459.0,1637401937.571
2262703.0,1637401937.613
2265102.0,1637401937.653
2268446.0,1637401937.692
2273645.0,1637401937.734
2280283.0,1637401937.773
2285199.0,1637401937.813
2289799.0,1637401937.855
2292638.0,1637401937.893
2295746.0,1637401937.932
2295746.0,1637401937.964
2301446.0,1637401938.003
2309270.0,1637401938.044
2314076.0,1637401938.084
2314900.0,1637401938.123
2322521.0,1637401938.163
2329436.0,1637401938.204
2332859.0,1637401938.244
2334336.0,1637401938.284
2331634.0,1637401938.325
2330078.0,1637401938.364
2327681.0,1637401938.404
2325358.0,1637401938.445
2322013.0,1637401938.484
2317241.0,1637401938.524
2313296.0,1637401938.565
2310928.0,1637401938.604
2308479.0,1637401938.645
2307836.0,1637401938.681
2306692.0,1637401938.715
2305452.0,1637401938.753
2302163.0,1637401938.795
2297687.0,1637401938.834
2293155.0,1637401938.874
2289430.0,1637401938.915
2286538.0,1637401938.954
2284624.0,1637401938.995
2282431.0,1637401939.037
2281062.0,1637401939.075
2279765.0,1637401939.113
2278652.0,1637401939.155
2277667.0,1637401939.194
2277283.0,1637401939.235
2276652.0,1637401939.274
2275965.0,1637401939.309
2275161.0,1637401939.349
2275528.0,1637401939.39
2274340.0,1637401939.43
2270173.0,1637401939.47
2265439.0,1637401939.511
2261489.0,1637401939.55
2258285.0,1637401939.59
2256934.0,1637401939.632
2255454.0,1637401939.67
2254472.0,1637401939.71
2253981.0,1637401939.751
2252946.0,1637401939.79
2252369.0,1637401939.831
2252598.0,1637401939.871
2253034.0,1637401939.91
2254159.0,1637401939.95
2257480.0,1637401939.991
2259897.0,1637401940.028
2261403.0,1637401940.065
2260337.0,1637401940.107
2259023.0,1637401940.14
2257688.0,1637401940.176
2258717.0,1637401940.215
2259300.0,1637401940.253
2262703.0,1637401940.293
2265415.0,1637401940.335
2267119.0,1637401940.374
2269663.0,1637401940.415
2279816.0,1637401940.456
2285283.0,1637401940.495
2287808.0,1637401940.533
2288454.0,1637401940.574
2287344.0,1637401940.614
2283316.0,1637401940.653
2277074.0,1637401940.694
2270285.0,1637401940.733
2263193.0,1637401940.773
2257638.0,1637401940.815
2254086.0,1637401940.853
2251124.0,1637401940.893
2249352.0,1637401940.935
2247429.0,1637401940.974
2245255.0,1637401941.014
2243660.0,1637401941.055
2241951.0,1637401941.094
2240234.0,1637401941.134
2239393.0,1637401941.175
2237811.0,1637401941.215
2232143.0,1637401941.254
2224445.0,1637401941.295
2216659.0,1637401941.334
2210274.0,1637401941.373
2205534.0,1637401941.412
2202415.0,1637401941.451
2200168.0,1637401941.49
2197869.0,1637401941.529
2195189.0,1637401941.568
2192508.0,1637401941.607
2190529.0,1637401941.646
2187057.0,1637401941.724
2185698.0,1637401941.763
2177321.0,1637401941.88
2188604.0,1637401941.685
2183664.0,1637401941.841
2159974.0,1637401941.958
2153631.0,1637401941.997
2168313.0,1637401941.919
2148310.0,1637401942.036
2145199.0,1637401942.075
2142804.0,1637401942.114
2140661.0,1637401942.153
2138687.0,1637401942.192
2137932.0,1637401942.231
2184733.0,1637401941.802
2138010.0,1637401942.27
2139261.0,1637401942.309
2141806.0,1637401942.348
2145796.0,1637401942.387
2152463.0,1637401942.426
2159828.0,1637401942.465
2167314.0,1637401942.504
2172811.0,1637401942.543
2184267.0,1637401942.621
2188912.0,1637401942.66
2189514.0,1637401942.699
2188073.0,1637401942.738
2184121.0,1637401942.777
2181983.0,1637401942.816
2178281.0,1637401942.582
2180286.0,1637401942.855
2176872.0,1637401942.894
2172699.0,1637401942.933
2167571.0,1637401942.972
2162654.0,1637401943.011
2162654.0,1637401943.05
2159463.0,1637401943.089
2157101.0,1637401943.128
2154725.0,1637401943.167
2153136.0,1637401943.206
2150216.0,1637401943.284
2151733.0,1637401943.245
2149174.0,1637401943.323
2145096.0,1637401943.362
2136026.0,1637401943.401
2126599.0,1637401943.44
2118949.0,1637401943.479
2113141.0,1637401943.518
2109092.0,1637401943.557
2106466.0,1637401943.596
2104050.0,1637401943.635
2101594.0,1637401943.674
2098784.0,1637401943.713
2096538.0,1637401943.752
2094306.0,1637401943.791
2092680.0,1637401943.83
2090287.0,1637401943.908
2089291.0,1637401943.947
2088559.0,1637401943.986
2088290.0,1637401944.025
2091011.0,1637401943.869
2088088.0,1637401944.064
2082917.0,1637401944.103
2064406.0,1637401944.181
2052283.0,1637401944.259
2046861.0,1637401944.337
2048916.0,1637401944.298
2057304.0,1637401944.22
2073678.0,1637401944.142
2044670.0,1637401944.415
2045321.0,1637401944.376
2044643.0,1637401944.454
2047988.0,1637401944.493
2057114.0,1637401944.532
2066372.0,1637401944.571
2072501.0,1637401944.61
2077072.0,1637401944.649
2080703.0,1637401944.688
2085154.0,1637401944.727
2090092.0,1637401944.766
2094550.0,1637401944.805
2098800.0,1637401944.844
2098516.0,1637401944.883
2096228.0,1637401944.922
2094278.0,1637401944.961
2091999.0,1637401945.0
2094833.0,1637401945.039
2101332.0,1637401945.078
2105088.0,1637401945.117
2107920.0,1637401945.156
2112271.0,1637401945.195
2114515.0,1637401945.234
2113798.0,1637401945.273
2111727.0,1637401945.312
2108874.0,1637401945.351
2104758.0,1637401945.391
2102212.0,1637401945.431
2100305.0,1637401945.471
2099080.0,1637401945.511
2098661.0,1637401945.551
2098179.0,1637401945.591
2093958.0,1637401945.631
2085220.0,1637401945.671
2076452.0,1637401945.711
2070703.0,1637401945.751
2066260.0,1637401945.791
2063446.0,1637401945.831
2061006.0,1637401945.871
2058882.0,1637401945.911
2056847.0,1637401945.951
2055730.0,1637401945.991
2054541.0,1637401946.031
2053007.0,1637401946.071
2051955.0,1637401946.111
2051143.0,1637401946.151
2050709.0,1637401946.191
2050912.0,1637401946.231
2050924.0,1637401946.271
2051334.0,1637401946.311
2051942.0,1637401946.351
2050043.0,1637401946.391
2043288.0,1637401946.431
2035572.0,1637401946.471
2029720.0,1637401946.511
2025677.0,1637401946.551
2022303.0,1637401946.591
2020581.0,1637401946.631
2019144.0,1637401946.671
2017645.0,1637401946.711
2016244.0,1637401946.751
2016352.0,1637401946.791
2019565.0,1637401946.831
2024403.0,1637401946.871
2030804.0,1637401946.911
2041764.0,1637401946.951
2054217.0,1637401946.991
2068806.0,1637401947.031
2082492.0,1637401947.071
2092697.0,1637401947.111
2097099.0,1637401947.151
2103518.0,1637401947.191
2114433.0,1637401947.231
2122308.0,1637401947.271
2126564.0,1637401947.311
2128585.0,1637401947.351
2128661.0,1637401947.391
2125869.0,1637401947.431
2122659.0,1637401947.471
2118717.0,1637401947.511
2115149.0,1637401947.551
2112167.0,1637401947.591
2109899.0,1637401947.631
2107791.0,1637401947.671
2106093.0,1637401947.711
2104182.0,1637401947.751
2103334.0,1637401947.791
2103374.0,1637401947.831
2103197.0,1637401947.871
2098715.0,1637401947.911
2091175.0,1637401947.951
2084409.0,1637401947.991
2079611.0,1637401948.031
2075954.0,1637401948.071
2073501.0,1637401948.111
2071718.0,1637401948.151
2070366.0,1637401948.191
2068733.0,1637401948.231
2067087.0,1637401948.271
2065727.0,1637401948.311
2065017.0,1637401948.351
2064351.0,1637401948.391
2064036.0,1637401948.431
2063990.0,1637401948.471
2063792.0,1637401948.511
2063681.0,1637401948.551
2063671.0,1637401948.591
2063996.0,1637401948.631
2064019.0,1637401948.671
2063840.0,1637401948.711
2064145.0,1637401948.751
2063901.0,1637401948.791
2059397.0,1637401948.831
2051589.0,1637401948.871
2045013.0,1637401948.911
2042964.0,1637401948.951
2045831.0,1637401948.991
2049298.0,1637401949.031
2052240.0,1637401949.071
2057742.0,1637401949.111
2068601.0,1637401949.151
2079171.0,1637401949.191
2090992.0,1637401949.231
2090992.0,1637401949.271
2101960.0,1637401949.311
2110902.0,1637401949.351
2116865.0,1637401949.391
2121846.0,1637401949.431
2130283.0,1637401949.471
2138345.0,1637401949.511
2143767.0,1637401949.551
2147967.0,1637401949.591
2150870.0,1637401949.631
2150508.0,1637401949.671
2148796.0,1637401949.711
2145683.0,1637401949.751
2137335.0,1637401949.791
2128835.0,1637401949.831
2122432.0,1637401949.871
2117886.0,1637401949.911
2114931.0,1637401949.951
2112854.0,1637401949.991
2113539.0,1637401950.031
2114094.0,1637401950.071
2114197.0,1637401950.111
2113823.0,1637401950.151
2113922.0,1637401950.191
2113854.0,1637401950.231
2114784.0,1637401950.271
2115847.0,1637401950.311
2117508.0,1637401950.351
2118383.0,1637401950.391
2118700.0,1637401950.431
2118553.0,1637401950.471
2113669.0,1637401950.511
2104282.0,1637401950.551
2094366.0,1637401950.591
2085994.0,1637401950.631
2079264.0,1637401950.671
2075247.0,1637401950.711
2072035.0,1637401950.751
2069133.0,1637401950.791
2065886.0,1637401950.831
2062971.0,1637401950.871
2059992.0,1637401950.911
2057781.0,1637401950.951
2055959.0,1637401950.991
2054682.0,1637401951.031
2054694.0,1637401951.071
2054612.0,1637401951.111
2055683.0,1637401951.151
2057898.0,1637401951.191
2061405.0,1637401951.231
2064882.0,1637401951.271
2065823.0,1637401951.311
2061352.0,1637401951.351
2059912.0,1637401951.391
2059847.0,1637401951.431
2060441.0,1637401951.471
2064203.0,1637401951.511
2069536.0,1637401951.551
2074992.0,1637401951.591
2079818.0,1637401951.631
2085026.0,1637401951.671
2090175.0,1637401951.711
2096014.0,1637401951.751
2101675.0,1637401951.791
2109851.0,1637401951.831
2116490.0,1637401951.871
2116463.0,1637401951.911
2114123.0,1637401951.951
2111052.0,1637401951.991
2107212.0,1637401952.031
2103833.0,1637401952.071
2096034.0,1637401952.111
2084750.0,1637401952.151
2073662.0,1637401952.191
2065961.0,1637401952.231
2060291.0,1637401952.271
2055215.0,1637401952.311
2050936.0,1637401952.351
2047832.0,1637401952.391
2044547.0,1637401952.431
2040831.0,1637401952.471
2036901.0,1637401952.511
2033916.0,1637401952.551
2031427.0,1637401952.591
2029417.0,1637401952.631
2027576.0,1637401952.671
2026118.0,1637401952.711
2025205.0,1637401952.751
2024366.0,1637401952.791
2023781.0,1637401952.831
2020139.0,1637401952.871
2008383.0,1637401952.911
1994841.0,1637401952.951
1984498.0,1637401952.991
1976246.0,1637401953.031
1970365.0,1637401953.071
1966059.0,1637401953.111
1962422.0,1637401953.151
1958729.0,1637401953.191
1954917.0,1637401953.231
1951717.0,1637401953.269
1949037.0,1637401953.311
1947226.0,1637401953.349
1946279.0,1637401953.389
1947470.0,1637401953.431
1949816.0,1637401953.47
1952595.0,1637401953.51
1957902.0,1637401953.551
1965620.0,1637401953.59
1975538.0,1637401953.63
1987237.0,1637401953.671
1998578.0,1637401953.711
2011543.0,1637401953.751
2019483.0,1637401953.793
2025749.0,1637401953.832
2033237.0,1637401953.872
2039790.0,1637401953.914
2042594.0,1637401953.953
2044251.0,1637401953.993
2043807.0,1637401954.035
2038655.0,1637401954.074
2034363.0,1637401954.115
2040356.0,1637401954.155
2047213.0,1637401954.194
2051840.0,1637401954.235
2055265.0,1637401954.275
2058607.0,1637401954.315
2060641.0,1637401954.354
2062294.0,1637401954.434
2062285.0,1637401954.475
2061894.0,1637401954.395
2061388.0,1637401954.516
2060054.0,1637401954.555
2054251.0,1637401954.595
2040799.0,1637401954.636
2026558.0,1637401954.675
2017499.0,1637401954.716
2011708.0,1637401954.756
2007670.0,1637401954.795
2004537.0,1637401954.835
2002638.0,1637401954.876
1999185.0,1637401954.916
1996007.0,1637401954.955
1992959.0,1637401954.996
1991619.0,1637401955.036
1990617.0,1637401955.074
1989853.0,1637401955.116
1989102.0,1637401955.154
1988252.0,1637401955.195
1987766.0,1637401955.236
1987152.0,1637401955.275
1986669.0,1637401955.32
1987213.0,1637401955.355
1987409.0,1637401955.393
1988182.0,1637401955.428
1989552.0,1637401955.469
1990114.0,1637401955.509
1983080.0,1637401955.549
1971221.0,1637401955.59
1961328.0,1637401955.629
1954316.0,1637401955.669
1949245.0,1637401955.711
1945829.0,1637401955.749
1943500.0,1637401955.789
1941474.0,1637401955.83
1939181.0,1637401955.869
1936828.0,1637401955.91
1934766.0,1637401955.95
1933964.0,1637401955.989
1935160.0,1637401956.03
1938839.0,1637401956.071
1942811.0,1637401956.104
1947253.0,1637401956.138
1952998.0,1637401956.179
1960155.0,1637401956.213
1967368.0,1637401956.254
1975337.0,1637401956.295
1981854.0,1637401956.333
1986811.0,1637401956.374
1990087.0,1637401956.415
1990416.0,1637401956.454
1989734.0,1637401956.495
1988331.0,1637401956.536
1987311.0,1637401956.575
1984099.0,1637401956.615
1980552.0,1637401956.656
1975792.0,1637401956.696
1970262.0,1637401956.736
1967707.0,1637401956.777
1965955.0,1637401956.816
1965043.0,1637401956.856
1963787.0,1637401956.897
1962950.0,1637401956.936
1962784.0,1637401956.976
1962303.0,1637401957.017
1961988.0,1637401957.056
1962263.0,1637401957.097
1963968.0,1637401957.137
1964991.0,1637401957.176
1965718.0,1637401957.216
1967014.0,1637401957.257
1968038.0,1637401957.297
1963261.0,1637401957.334
1955028.0,1637401957.375
1948310.0,1637401957.414
1943266.0,1637401957.455
1939525.0,1637401957.497
1937221.0,1637401957.535
1936349.0,1637401957.575
1935989.0,1637401957.617
1935247.0,1637401957.656
1934674.0,1637401957.695
1934850.0,1637401957.735
1935148.0,1637401957.774
1935845.0,1637401957.815
1936705.0,1637401957.856
1937820.0,1637401957.896
1939379.0,1637401957.935
1941112.0,1637401957.974
1941112.0,1637401958.004
1942648.0,1637401958.044
1944595.0,1637401958.086
1946856.0,1637401958.124
1948913.0,1637401958.164
1951073.0,1637401958.205
1953649.0,1637401958.245
1958137.0,1637401958.285
1959729.0,1637401958.326
1955519.0,1637401958.365
1953816.0,1637401958.405
1956000.0,1637401958.446
1958651.0,1637401958.486
1963557.0,1637401958.525
1966867.0,1637401958.566
1967099.0,1637401958.605
1967119.0,1637401958.645
1976676.0,1637401958.688
1989157.0,1637401958.721
1996239.0,1637401958.756
2000950.0,1637401958.795
2004176.0,1637401958.835
2006251.0,1637401958.876
2010092.0,1637401958.917
2017276.0,1637401958.956
2022445.0,1637401958.996
2026261.0,1637401959.038
2028511.0,1637401959.077
2030304.0,1637401959.114
2029672.0,1637401959.155
2026077.0,1637401959.194
2022713.0,1637401959.235
2021367.0,1637401959.276
2019804.0,1637401959.315
2018389.0,1637401959.355
2018268.0,1637401959.396
2018558.0,1637401959.435
2018542.0,1637401959.476
2018534.0,1637401959.516
2018346.0,1637401959.555
2017969.0,1637401959.595
2017756.0,1637401959.636
2017406.0,1637401959.676
2017220.0,1637401959.715
2017083.0,1637401959.756
2017265.0,1637401959.795
2017415.0,1637401959.836
2018048.0,1637401959.878
2019000.0,1637401959.917
2019818.0,1637401959.957
2019543.0,1637401959.999
2015483.0,1637401960.038
2010304.0,1637401960.079
2006546.0,1637401960.117
2003903.0,1637401960.156
2002510.0,1637401960.197
2001625.0,1637401960.234
2001080.0,1637401960.274
2001017.0,1637401960.313
2001254.0,1637401960.354
2004630.0,1637401960.393
2010035.0,1637401960.433
2018081.0,1637401960.475
2030587.0,1637401960.513
2045710.0,1637401960.553
2059572.0,1637401960.594
2074135.0,1637401960.633
2086187.0,1637401960.674
2096829.0,1637401960.715
2107303.0,1637401960.754
2116700.0,1637401960.794
2124213.0,1637401960.835
2129698.0,1637401960.875
2133620.0,1637401960.914
2135118.0,1637401960.956
2136952.0,1637401960.995
2139394.0,1637401961.036
2140302.0,1637401961.078
2141601.0,1637401961.116
2143974.0,1637401961.157
2147489.0,1637401961.198
2147133.0,1637401961.237
2148631.0,1637401961.278
2162445.0,1637401961.32
2172384.0,1637401961.355
2176830.0,1637401961.392
2177446.0,1637401961.433
2175040.0,1637401961.473
2172335.0,1637401961.512
2168855.0,1637401961.553
2164836.0,1637401961.593
2161743.0,1637401961.633
2158489.0,1637401961.674
2155746.0,1637401961.713
2154084.0,1637401961.753
2150458.0,1637401961.794
2145998.0,1637401961.833
2141689.0,1637401961.874
2138777.0,1637401961.914
2137065.0,1637401961.953
2135349.0,1637401961.993
2133382.0,1637401962.034
2131019.0,1637401962.075
2128833.0,1637401962.115
2127584.0,1637401962.156
2126126.0,1637401962.195
2124291.0,1637401962.236
2122982.0,1637401962.282
2121825.0,1637401962.317
2120597.0,1637401962.357
2119878.0,1637401962.398
2119112.0,1637401962.438
2118689.0,1637401962.479
2118174.0,1637401962.519
2116755.0,1637401962.558
2116734.0,1637401962.599
2116744.0,1637401962.64
2116741.0,1637401962.677
2117137.0,1637401962.716
2115884.0,1637401962.757
2111210.0,1637401962.796
2105209.0,1637401962.836
2101014.0,1637401962.878
2098037.0,1637401962.917
2095118.0,1637401962.957
2093626.0,1637401962.998
2092159.0,1637401963.037
2090805.0,1637401963.077
2089960.0,1637401963.118
2089877.0,1637401963.157
2090202.0,1637401963.197
2091942.0,1637401963.238
2096022.0,1637401963.278
2102123.0,1637401963.317
2107839.0,1637401963.358
2114138.0,1637401963.398
2117373.0,1637401963.439
2120478.0,1637401963.481
2122976.0,1637401963.519
2125190.0,1637401963.559
2126725.0,1637401963.601
2128579.0,1637401963.638
2126803.0,1637401963.679
2121779.0,1637401963.719
2124766.0,1637401963.758
2129729.0,1637401963.799
2130340.0,1637401963.84
2130788.0,1637401963.879
2131730.0,1637401963.918
2132875.0,1637401963.959
2136027.0,1637401963.998
2141201.0,1637401964.039
2145560.0,1637401964.08
2146955.0,1637401964.119
2146411.0,1637401964.159
2146605.0,1637401964.2
2146070.0,1637401964.239
2144619.0,1637401964.28
2143404.0,1637401964.32
2142734.0,1637401964.359
2142749.0,1637401964.399
2143418.0,1637401964.44
2143898.0,1637401964.48
2144918.0,1637401964.519
2146020.0,1637401964.56
2146934.0,1637401964.598
2146566.0,1637401964.639
2142934.0,1637401964.68
2137571.0,1637401964.719
2133037.0,1637401964.759
2129099.0,1637401964.801
2125740.0,1637401964.84
2122761.0,1637401964.881
2120852.0,1637401964.921
2118735.0,1637401964.958
2116623.0,1637401964.999
2114112.0,1637401965.04
2112356.0,1637401965.08
2111085.0,1637401965.119
2110368.0,1637401965.158
2109438.0,1637401965.197
2108828.0,1637401965.288
2109030.0,1637401965.33
2109186.0,1637401965.368
2110257.0,1637401965.408
2112582.0,1637401965.449
2114530.0,1637401965.488
2117389.0,1637401965.529
2120966.0,1637401965.569
2126419.0,1637401965.608
2135689.0,1637401965.648
2138603.0,1637401965.69
2139829.0,1637401965.729
2143361.0,1637401965.769
2147538.0,1637401965.81
2151697.0,1637401965.849
2153064.0,1637401965.889
2151987.0,1637401965.931
2152364.0,1637401965.969
2151773.0,1637401966.009
2148876.0,1637401966.05
2143767.0,1637401966.089
2145681.0,1637401966.131
2156808.0,1637401966.172
2163940.0,1637401966.21
2167553.0,1637401966.251
2168903.0,1637401966.292
2169832.0,1637401966.332
2169611.0,1637401966.372
2171508.0,1637401966.41
2172595.0,1637401966.445
2173390.0,1637401966.485
2173228.0,1637401966.527
2169002.0,1637401966.565
2163517.0,1637401966.605
2160974.0,1637401966.646
2162128.0,1637401966.686
2164319.0,1637401966.726
2165758.0,1637401966.767
2166766.0,1637401966.806
2167574.0,1637401966.846
2166860.0,1637401966.887
2166686.0,1637401966.927
2167345.0,1637401966.966
2168155.0,1637401967.007
2168227.0,1637401967.046
2168294.0,1637401967.086
2169481.0,1637401967.124
2171191.0,1637401967.157
2174066.0,1637401967.192
2175406.0,1637401967.23
2177150.0,1637401967.27
2178686.0,1637401967.311
2179743.0,1637401967.351
2179893.0,1637401967.391
2177307.0,1637401967.431
2173308.0,1637401967.472
2169167.0,1637401967.512
2165996.0,1637401967.549
2163365.0,1637401967.591
2161396.0,1637401967.63
2160327.0,1637401967.671
2158957.0,1637401967.712
2157815.0,1637401967.751
2156369.0,1637401967.791
2155466.0,1637401967.832
2155465.0,1637401967.871
2156168.0,1637401967.912
2158149.0,1637401967.952
2159872.0,1637401967.991
2162597.0,1637401968.031
2165587.0,1637401968.072
2168744.0,1637401968.112
2175215.0,1637401968.151
2181004.0,1637401968.192
2185444.0,1637401968.231
2188964.0,1637401968.272
2192584.0,1637401968.313
2196980.0,1637401968.352
2197050.0,1637401968.392
2193950.0,1637401968.431
2192441.0,1637401968.47
2190941.0,1637401968.511
2188664.0,1637401968.552
2184578.0,1637401968.591
2182178.0,1637401968.631
2179256.0,1637401968.672
2175638.0,1637401968.712
2172753.0,1637401968.752
2172753.0,1637401968.785
2170928.0,1637401968.824
2170559.0,1637401968.864
2169711.0,1637401968.906
2169204.0,1637401968.944
2168415.0,1637401968.984
2167271.0,1637401969.025
2166265.0,1637401969.064
2165161.0,1637401969.105
2164125.0,1637401969.146
2162944.0,1637401969.185
2162526.0,1637401969.225
2160960.0,1637401969.266
2154553.0,1637401969.306
2145944.0,1637401969.345
2138527.0,1637401969.386
2132405.0,1637401969.425
2128152.0,1637401969.465
2124566.0,1637401969.502
2121141.0,1637401969.54
2118067.0,1637401969.572
2114920.0,1637401969.613
2111459.0,1637401969.652
2108438.0,1637401969.693
2105933.0,1637401969.734
2103802.0,1637401969.773
2101841.0,1637401969.813
2100444.0,1637401969.855
2099940.0,1637401969.891
2100118.0,1637401969.922
2102241.0,1637401969.964
2103656.0,1637401970.003
2105783.0,1637401970.043
2109435.0,1637401970.084
2111773.0,1637401970.123
2116469.0,1637401970.163
2118987.0,1637401970.204
2118400.0,1637401970.243
2117067.0,1637401970.284
2118865.0,1637401970.324
2119805.0,1637401970.363
2116512.0,1637401970.403
2109310.0,1637401970.444
2108035.0,1637401970.484
2121490.0,1637401970.523
2131526.0,1637401970.564
2132541.0,1637401970.598
2133435.0,1637401970.639
2136145.0,1637401970.675
2137011.0,1637401970.711
2142638.0,1637401970.751
2146845.0,1637401970.793
2148172.0,1637401970.832
2148933.0,1637401970.873
2148166.0,1637401970.913
2145914.0,1637401970.952
2143973.0,1637401970.993
2138140.0,1637401971.034
2130242.0,1637401971.072
2123947.0,1637401971.111
2119938.0,1637401971.153
2117104.0,1637401971.192
2114360.0,1637401971.232
2114360.0,1637401971.271
2112833.0,1637401971.309
2111274.0,1637401971.349
2109030.0,1637401971.39
2106543.0,1637401971.429
2103678.0,1637401971.47
2101188.0,1637401971.511
2099320.0,1637401971.55
2098189.0,1637401971.59
2096881.0,1637401971.631
2095621.0,1637401971.67
2094488.0,1637401971.71
2092752.0,1637401971.751
2091449.0,1637401971.79
2090178.0,1637401971.83
2088668.0,1637401971.872
2086756.0,1637401971.91
2081562.0,1637401971.951
2073515.0,1637401971.993
2066879.0,1637401972.032
2061614.0,1637401972.072
2057477.0,1637401972.113
2055699.0,1637401972.152
2057880.0,1637401972.192
2061686.0,1637401972.233
2064021.0,1637401972.273
2064246.0,1637401972.313
2062096.0,1637401972.354
2063451.0,1637401972.393
2064760.0,1637401972.432
2066101.0,1637401972.474
2063104.0,1637401972.512
2059861.0,1637401972.552
2073320.0,1637401972.587
2087602.0,1637401972.626
2092688.0,1637401972.666
2094907.0,1637401972.707
2091139.0,1637401972.746
2083401.0,1637401972.786
2089198.0,1637401972.827
2105618.0,1637401972.867
2113669.0,1637401972.906
2111692.0,1637401972.947
2110123.0,1637401972.986
2109290.0,1637401973.026
2105116.0,1637401973.068
2103658.0,1637401973.106
2101070.0,1637401973.146
2098518.0,1637401973.187
2096556.0,1637401973.226
2094317.0,1637401973.268
2093298.0,1637401973.306
2092211.0,1637401973.384
2092889.0,1637401973.349
2089450.0,1637401973.425
2087336.0,1637401973.46
2084263.0,1637401973.495
2077093.0,1637401973.534
2069461.0,1637401973.573
2063069.0,1637401973.614
2057372.0,1637401973.656
2052105.0,1637401973.694
2047779.0,1637401973.734
2044450.0,1637401973.775
2040738.0,1637401973.81
2036672.0,1637401973.851
2033187.0,1637401973.891
2030811.0,1637401973.93
2028376.0,1637401973.97
2026621.0,1637401974.011
2025152.0,1637401974.051
2023754.0,1637401974.09
2022545.0,1637401974.131
2021746.0,1637401974.171
2020919.0,1637401974.211
2020147.0,1637401974.252
2019537.0,1637401974.291
2019311.0,1637401974.331
2016339.0,1637401974.372
2009845.0,1637401974.411
2003343.0,1637401974.452
1998602.0,1637401974.493
1995962.0,1637401974.532
1996764.0,1637401974.573
2002520.0,1637401974.614
2007697.0,1637401974.654
2013114.0,1637401974.694
2018061.0,1637401974.735
2021610.0,1637401974.774
2026207.0,1637401974.815
2030207.0,1637401974.857
2033236.0,1637401974.895
2035303.0,1637401974.935
2036957.0,1637401974.977
2038239.0,1637401975.016
2042014.0,1637401975.055
2046046.0,1637401975.095
2048412.0,1637401975.134
2049195.0,1637401975.174
2047812.0,1637401975.216
2056028.0,1637401975.255
2069063.0,1637401975.295
2074840.0,1637401975.336
2073916.0,1637401975.375
2070737.0,1637401975.415
2068321.0,1637401975.457
2063799.0,1637401975.495
2058331.0,1637401975.535
2052975.0,1637401975.576
2047806.0,1637401975.615
2043258.0,1637401975.656
2039536.0,1637401975.696
2036520.0,1637401975.736
2033877.0,1637401975.774
2032192.0,1637401975.816
2030792.0,1637401975.855
2029590.0,1637401975.895
2028174.0,1637401975.936
2026909.0,1637401975.975
2026036.0,1637401976.016
2025546.0,1637401976.058
2024738.0,1637401976.096
2024355.0,1637401976.134
2024348.0,1637401976.176
2024667.0,1637401976.215
2024293.0,1637401976.26
2021450.0,1637401976.297
2018321.0,1637401976.336
2015211.0,1637401976.365
2013377.0,1637401976.406
2011827.0,1637401976.445
2010696.0,1637401976.485
2010004.0,1637401976.526
2009327.0,1637401976.565
2008341.0,1637401976.605
2007964.0,1637401976.647
2007390.0,1637401976.685
2007042.0,1637401976.725
2006861.0,1637401976.766
2006656.0,1637401976.805
2006933.0,1637401976.846
2007416.0,1637401976.887
2009509.0,1637401976.926
2015726.0,1637401976.966
2021793.0,1637401977.007
2027561.0,1637401977.046
2032231.0,1637401977.082
2037168.0,1637401977.118
2046145.0,1637401977.154
2059349.0,1637401977.193
2068514.0,1637401977.232
2073432.0,1637401977.271
2076456.0,1637401977.31
2078917.0,1637401977.349
2082164.0,1637401977.388
2088246.0,1637401977.466
2086012.0,1637401977.427
2090458.0,1637401977.544
2090103.0,1637401977.505
2091415.0,1637401977.583
2092752.0,1637401977.622
2094121.0,1637401977.661
2095910.0,1637401977.7
2098637.0,1637401977.739
2098594.0,1637401977.778
2096133.0,1637401977.817
2102875.0,1637401977.856
2112183.0,1637401977.895
2118689.0,1637401977.934
2121189.0,1637401977.973
2124513.0,1637401978.012
2127051.0,1637401978.051
2127744.0,1637401978.09
2124296.0,1637401978.129
2118258.0,1637401978.168
2114868.0,1637401978.207
2111674.0,1637401978.246
2109116.0,1637401978.285
2106628.0,1637401978.324
2104491.0,1637401978.363
2102779.0,1637401978.402
2099474.0,1637401978.48
2101021.0,1637401978.441
2097771.0,1637401978.519
2096856.0,1637401978.558
2095828.0,1637401978.597
2094997.0,1637401978.636
2094563.0,1637401978.675
2094286.0,1637401978.714
2093872.0,1637401978.753
2093618.0,1637401978.831
2093872.0,1637401978.792
2092942.0,1637401978.909
2092515.0,1637401978.948
2093351.0,1637401978.87
2092668.0,1637401978.987
2092550.0,1637401979.026
2092834.0,1637401979.065
2092667.0,1637401979.104
2091180.0,1637401979.143
2088809.0,1637401979.182
2086337.0,1637401979.221
2084800.0,1637401979.26
2083444.0,1637401979.299
2082291.0,1637401979.338
2080982.0,1637401979.377
2080454.0,1637401979.416
2078961.0,1637401979.455
2078253.0,1637401979.494
2075949.0,1637401979.611
2077432.0,1637401979.65
2083354.0,1637401979.689
2077427.0,1637401979.533
2090968.0,1637401979.728
2095571.0,1637401979.767
2100194.0,1637401979.806
2076822.0,1637401979.572
2106489.0,1637401979.845
2118671.0,1637401979.923
2114163.0,1637401979.884
2122953.0,1637401979.962
2124514.0,1637401980.001
2124566.0,1637401980.04
2124197.0,1637401980.079
2124614.0,1637401980.118
2124913.0,1637401980.157
2123636.0,1637401980.196
2123350.0,1637401980.235
2123409.0,1637401980.274
2122857.0,1637401980.313
2122522.0,1637401980.352
2122761.0,1637401980.391
2124580.0,1637401980.43
2126047.0,1637401980.469
2127534.0,1637401980.508
2130091.0,1637401980.547
2132721.0,1637401980.586
2135844.0,1637401980.625
2137662.0,1637401980.664
2140598.0,1637401980.703
2145244.0,1637401980.742
2149132.0,1637401980.781
2151461.0,1637401980.82
2152448.0,1637401980.859
2156675.0,1637401980.898
2162846.0,1637401980.937
2166647.0,1637401980.976
2167428.0,1637401981.015
2167625.0,1637401981.054
2168831.0,1637401981.093
2169062.0,1637401981.132
2166255.0,1637401981.171
2162924.0,1637401981.21
2156946.0,1637401981.249
2152361.0,1637401981.288
2148391.0,1637401981.327
2145868.0,1637401981.366
2144210.0,1637401981.405
2143048.0,1637401981.444
2143297.0,1637401981.483
2142602.0,1637401981.522
2141507.0,1637401981.561
2141027.0,1637401981.6
2140313.0,1637401981.639
2139239.0,1637401981.678
2136957.0,1637401981.756
2138233.0,1637401981.717
2136179.0,1637401981.795
2135307.0,1637401981.834
2134454.0,1637401981.873
2132279.0,1637401981.913
2128923.0,1637401981.953
2125319.0,1637401981.993
2122180.0,1637401982.033
2119453.0,1637401982.073
2117262.0,1637401982.113
2115500.0,1637401982.153
2113868.0,1637401982.193
2112180.0,1637401982.233
2110609.0,1637401982.273
2109087.0,1637401982.313
2107994.0,1637401982.353
2106654.0,1637401982.393
2105923.0,1637401982.433
2105378.0,1637401982.473
2104827.0,1637401982.513
2104303.0,1637401982.553
2104128.0,1637401982.593
2104932.0,1637401982.633
2111925.0,1637401982.673
2116503.0,1637401982.713
2124413.0,1637401982.753
2134657.0,1637401982.793
2144175.0,1637401982.833
2153276.0,1637401982.873
2161859.0,1637401982.913
2172677.0,1637401982.953
2182591.0,1637401982.993
2188438.0,1637401983.033
2190345.0,1637401983.073
2186840.0,1637401983.113
2191132.0,1637401983.153
2199355.0,1637401983.193
2203581.0,1637401983.233
2203551.0,1637401983.273
2202267.0,1637401983.313
2200331.0,1637401983.353
2195860.0,1637401983.393
2195033.0,1637401983.433
2193478.0,1637401983.473
2190711.0,1637401983.513
2187900.0,1637401983.553
2187582.0,1637401983.593
2185492.0,1637401983.633
2181184.0,1637401983.673
2175651.0,1637401983.713
2175651.0,1637401983.753
2168350.0,1637401983.793
2160577.0,1637401983.833
2154591.0,1637401983.873
2149663.0,1637401983.913
2146357.0,1637401983.953
2143144.0,1637401983.993
2140385.0,1637401984.033
2137381.0,1637401984.073
2135043.0,1637401984.113
2133029.0,1637401984.153
2131636.0,1637401984.193
2130442.0,1637401984.233
2129241.0,1637401984.273
2128748.0,1637401984.313
2127939.0,1637401984.353
2126799.0,1637401984.393
2126693.0,1637401984.433
2126449.0,1637401984.473
2125824.0,1637401984.513
2125763.0,1637401984.553
2125853.0,1637401984.593
2126254.0,1637401984.633
2125813.0,1637401984.673
2122460.0,1637401984.713
2117569.0,1637401984.753
2113235.0,1637401984.793
2110344.0,1637401984.833
2109089.0,1637401984.873
2111891.0,1637401984.913
2117095.0,1637401984.953
2120785.0,1637401984.993
2124845.0,1637401985.033
2127100.0,1637401985.073
2130785.0,1637401985.113
2132631.0,1637401985.153
2134109.0,1637401985.193
2134019.0,1637401985.233
2140566.0,1637401985.273
2145816.0,1637401985.313
2147465.0,1637401985.353
2147452.0,1637401985.393
2148814.0,1637401985.433
2147434.0,1637401985.473
2143522.0,1637401985.513
2135473.0,1637401985.553
2125862.0,1637401985.593
2116303.0,1637401985.633
2108380.0,1637401985.673
2102333.0,1637401985.713
2096887.0,1637401985.753
2092436.0,1637401985.793
2083326.0,1637401985.873
2088103.0,1637401985.833
2079109.0,1637401985.913
2075060.0,1637401985.953
2071822.0,1637401985.993
2068623.0,1637401986.033
2066194.0,1637401986.073
2063929.0,1637401986.113
2062236.0,1637401986.153
2060326.0,1637401986.193
2059073.0,1637401986.233
2057469.0,1637401986.273
2056728.0,1637401986.313
2055367.0,1637401986.353
2054344.0,1637401986.393
2053375.0,1637401986.433
2052556.0,1637401986.473
2052200.0,1637401986.513
2051296.0,1637401986.553
2047482.0,1637401986.593
2041515.0,1637401986.633
2036435.0,1637401986.673
2032252.0,1637401986.713
2028398.0,1637401986.753
2024898.0,1637401986.793
2022118.0,1637401986.833
2019300.0,1637401986.873
2016619.0,1637401986.913
2014591.0,1637401986.953
2016751.0,1637401986.993
2018374.0,1637401987.033
2016240.0,1637401987.073
2014512.0,1637401987.113
2015421.0,1637401987.153
2014386.0,1637401987.193
2017958.0,1637401987.233
2027342.0,1637401987.273
2037506.0,1637401987.313
2044807.0,1637401987.353
2046594.0,1637401987.393
2055344.0,1637401987.433
2065624.0,1637401987.473
2070023.0,1637401987.513
2069467.0,1637401987.553
2067731.0,1637401987.593
2062824.0,1637401987.633
2056967.0,1637401987.673
2051965.0,1637401987.713
2045666.0,1637401987.753
2040104.0,1637401987.793
2035184.0,1637401987.833
2030723.0,1637401987.873
2025858.0,1637401987.913
2022676.0,1637401987.953
2020012.0,1637401987.993
2017498.0,1637401988.033
2015018.0,1637401988.073
2013394.0,1637401988.113
2012498.0,1637401988.153
2011249.0,1637401988.193
2010354.0,1637401988.233
2009720.0,1637401988.273
2009210.0,1637401988.313
2008695.0,1637401988.353
2007917.0,1637401988.393
2005371.0,1637401988.433
2000313.0,1637401988.473
2000313.0,1637401988.513
1995965.0,1637401988.553
1992162.0,1637401988.593
1989287.0,1637401988.633
1987256.0,1637401988.673
1985347.0,1637401988.713
1983733.0,1637401988.753
1982132.0,1637401988.793
1980359.0,1637401988.833
1979093.0,1637401988.873
1978044.0,1637401988.913
1978073.0,1637401988.953
1977945.0,1637401988.993
1977976.0,1637401989.033
1978332.0,1637401989.073
1978547.0,1637401989.115
1982242.0,1637401989.153
1998314.0,1637401989.194
2013821.0,1637401989.235
2027686.0,1637401989.274
2037545.0,1637401989.314
2044649.0,1637401989.355
2047112.0,1637401989.394
2046071.0,1637401989.434
2046752.0,1637401989.475
2049012.0,1637401989.515
2051554.0,1637401989.554
2052714.0,1637401989.594
2051394.0,1637401989.619
2055917.0,1637401989.659
2061120.0,1637401989.701
2063928.0,1637401989.74
2065244.0,1637401989.78
2065098.0,1637401989.821
2064733.0,1637401989.86
2062903.0,1637401989.901
2059880.0,1637401989.941
2056962.0,1637401989.98
2053294.0,1637401990.02
2050797.0,1637401990.061
2048142.0,1637401990.101
2045641.0,1637401990.14
2044155.0,1637401990.181
2042678.0,1637401990.22
2041912.0,1637401990.262
2041368.0,1637401990.302
2040900.0,1637401990.341
2033324.0,1637401990.42
2038369.0,1637401990.381
2025703.0,1637401990.5
2029050.0,1637401990.459
2022890.0,1637401990.541
2020602.0,1637401990.58
2018762.0,1637401990.62
2017929.0,1637401990.662
2016520.0,1637401990.701
2015209.0,1637401990.741
2013664.0,1637401990.78
2012384.0,1637401990.819
2011496.0,1637401990.86
2010756.0,1637401990.902
2009975.0,1637401990.94
2009554.0,1637401991.022
2009623.0,1637401990.98
2010368.0,1637401991.3
2010879.0,1637401991.339
2009954.0,1637401991.38
2009634.0,1637401991.419
2009281.0,1637401991.061
2009303.0,1637401991.102
2009615.0,1637401991.14
2009811.0,1637401991.179
2009880.0,1637401991.219
2010095.0,1637401991.46
2010220.0,1637401991.26
2015910.0,1637401991.501
2025171.0,1637401991.58
2026305.0,1637401991.621
2023559.0,1637401991.54
2028530.0,1637401991.66
2029975.0,1637401991.701
2032790.0,1637401991.78
2031364.0,1637401991.741
2036649.0,1637401991.862
2054745.0,1637401991.9
2030560.0,1637401991.82
2070164.0,1637401991.981
2064647.0,1637401991.94
2072259.0,1637401992.02
2073677.0,1637401992.099
2073680.0,1637401992.059
2072380.0,1637401992.138
2071712.0,1637401992.179
2071499.0,1637401992.22
2071107.0,1637401992.259
2069917.0,1637401992.297
2066434.0,1637401992.338
2063016.0,1637401992.377
2060047.0,1637401992.417
2058536.0,1637401992.458
2057758.0,1637401992.498
2057172.0,1637401992.537
2057440.0,1637401992.578
2056856.0,1637401992.617
2055843.0,1637401992.657
2056030.0,1637401992.699
2055204.0,1637401992.737
2054959.0,1637401992.777
2054644.0,1637401992.819
2053797.0,1637401992.858
2052922.0,1637401992.898
2052684.0,1637401992.939
2052563.0,1637401992.978
2052179.0,1637401993.019
2052117.0,1637401993.061
2051794.0,1637401993.1
2051862.0,1637401993.14
2052276.0,1637401993.182
2052571.0,1637401993.221
2053076.0,1637401993.261
2053259.0,1637401993.303
2052294.0,1637401993.341
2048245.0,1637401993.382
2043536.0,1637401993.417
2039047.0,1637401993.456
2036640.0,1637401993.497
2035195.0,1637401993.537
2034592.0,1637401993.576
2034578.0,1637401993.616
2036264.0,1637401993.658
2039131.0,1637401993.697
2043129.0,1637401993.737
2047850.0,1637401993.778
2053068.0,1637401993.817
2059168.0,1637401993.857
2064180.0,1637401993.899
2070114.0,1637401993.937
2075715.0,1637401993.977
2080050.0,1637401994.018
2083852.0,1637401994.057
2086165.0,1637401994.098
2086954.0,1637401994.14
2087912.0,1637401994.179
2088636.0,1637401994.22
2088164.0,1637401994.261
2087076.0,1637401994.301
2086563.0,1637401994.34
2096401.0,1637401994.382
2103040.0,1637401994.421
2103762.0,1637401994.461
2101527.0,1637401994.503
2098596.0,1637401994.542
2094920.0,1637401994.582
2091504.0,1637401994.622
2088171.0,1637401994.66
2085461.0,1637401994.701
2082091.0,1637401994.739
2078623.0,1637401994.778
2076230.0,1637401994.818
2074527.0,1637401994.859
2071100.0,1637401994.938
2069228.0,1637401994.979
2072962.0,1637401994.899
2068159.0,1637401995.018
2067900.0,1637401995.058
2067821.0,1637401995.1
2067751.0,1637401995.138
2067365.0,1637401995.179
2067769.0,1637401995.22
2067867.0,1637401995.259
2067341.0,1637401995.299
2063732.0,1637401995.34
2056851.0,1637401995.379
2049838.0,1637401995.419
2042947.0,1637401995.461
2038325.0,1637401995.501
2033942.0,1637401995.541
2030351.0,1637401995.582
2027322.0,1637401995.621
2024165.0,1637401995.662
2021093.0,1637401995.704
2018177.0,1637401995.742
2016005.0,1637401995.782
2014553.0,1637401995.824
2013243.0,1637401995.862
2012367.0,1637401995.898
2011806.0,1637401995.939
2011028.0,1637401995.978
2011025.0,1637401996.018
2011261.0,1637401996.059
2012892.0,1637401996.099
2016659.0,1637401996.138
2027590.0,1637401996.179
2041786.0,1637401996.219
2054826.0,1637401996.259
2068276.0,1637401996.3
2079395.0,1637401996.339
2090336.0,1637401996.379
2099912.0,1637401996.42
2108235.0,1637401996.459
2109934.0,1637401996.5
2109384.0,1637401996.54
2117230.0,1637401996.58
2123419.0,1637401996.621
2125273.0,1637401996.662
2125482.0,1637401996.702
2124757.0,1637401996.742
2121245.0,1637401996.783
2117792.0,1637401996.822
2113346.0,1637401996.862
2110267.0,1637401996.904
2106287.0,1637401996.943
2101867.0,1637401996.983
2099817.0,1637401997.015
2099923.0,1637401997.054
2100807.0,1637401997.095
2100863.0,1637401997.136
2101711.0,1637401997.175
2101800.0,1637401997.216
2098651.0,1637401997.256
2094868.0,1637401997.296
2091675.0,1637401997.335
2088797.0,1637401997.376
2086344.0,1637401997.415
2083620.0,1637401997.455
2081005.0,1637401997.497
2077532.0,1637401997.535
2074242.0,1637401997.575
2070738.0,1637401997.617
2067565.0,1637401997.656
2065433.0,1637401997.697
2063358.0,1637401997.735
2061025.0,1637401997.768
2058474.0,1637401997.809
2057245.0,1637401997.845
2056016.0,1637401997.882
2055216.0,1637401997.921
2054973.0,1637401997.963
2054539.0,1637401998.002
2053635.0,1637401998.042
2053564.0,1637401998.084
2053371.0,1637401998.123
2053468.0,1637401998.163
2052645.0,1637401998.204
2048572.0,1637401998.243
2043347.0,1637401998.284
2039795.0,1637401998.325
2039422.0,1637401998.364
2042686.0,1637401998.404
2042682.0,1637401998.445
2043728.0,1637401998.484
2048240.0,1637401998.524
2054954.0,1637401998.565
2058707.0,1637401998.604
2063633.0,1637401998.644
2070690.0,1637401998.686
2077807.0,1637401998.724
2081748.0,1637401998.764
2087012.0,1637401998.805
2091536.0,1637401998.844
2094238.0,1637401998.885
2094794.0,1637401998.923
2094985.0,1637401998.962
2093409.0,1637401999.002
2096499.0,1637401999.043
2110873.0,1637401999.083
2119147.0,1637401999.123
2120895.0,1637401999.164
2120543.0,1637401999.203
2118946.0,1637401999.246
2113076.0,1637401999.288
2108591.0,1637401999.326
2107366.0,1637401999.366
2108188.0,1637401999.407
2108405.0,1637401999.447
2107281.0,1637401999.487
2105546.0,1637401999.528
2103122.0,1637401999.567
2101979.0,1637401999.607
2102037.0,1637401999.648
2102466.0,1637401999.688
2103037.0,1637401999.727
2103118.0,1637401999.768
2103561.0,1637401999.807
2103787.0,1637401999.847
2103916.0,1637401999.889
2104324.0,1637401999.927
2105504.0,1637401999.965
2106847.0,1637402000.003
2108714.0,1637402000.042
2110154.0,1637402000.084
2111750.0,1637402000.124
2112653.0,1637402000.163
2111980.0,1637402000.203
2108655.0,1637402000.245
2104382.0,1637402000.285
2100260.0,1637402000.322
2097542.0,1637402000.363
2094527.0,1637402000.403
2092751.0,1637402000.443
2092751.0,1637402000.476
2090433.0,1637402000.514
2087672.0,1637402000.554
2085442.0,1637402000.595
2083190.0,1637402000.634
2081811.0,1637402000.675
2080406.0,1637402000.715
2080123.0,1637402000.754
2079717.0,1637402000.794
2079753.0,1637402000.836
2081509.0,1637402000.875
2082893.0,1637402000.915
2085436.0,1637402000.956
2088620.0,1637402000.995
2093351.0,1637402001.079
2098458.0,1637402001.121
2105352.0,1637402001.159
2108332.0,1637402001.199
2110723.0,1637402001.24
2115131.0,1637402001.279
2118086.0,1637402001.32
2116762.0,1637402001.36
2117461.0,1637402001.399
2124417.0,1637402001.439
2129299.0,1637402001.48
2129870.0,1637402001.521
2129221.0,1637402001.561
2128418.0,1637402001.597
2127754.0,1637402001.637
2127041.0,1637402001.668
2126262.0,1637402001.71
2125997.0,1637402001.748
2125167.0,1637402001.789
2124031.0,1637402001.83
2123092.0,1637402001.869
2122209.0,1637402001.91
2120558.0,1637402001.951
2120195.0,1637402001.99
2119697.0,1637402002.03
2118657.0,1637402002.071
2115545.0,1637402002.11
2111364.0,1637402002.15
2107347.0,1637402002.191
2103564.0,1637402002.23
2100330.0,1637402002.27
2097507.0,1637402002.312
2095621.0,1637402002.35
2093834.0,1637402002.39
2091743.0,1637402002.431
2089745.0,1637402002.47
2088167.0,1637402002.511
2086740.0,1637402002.552
2086148.0,1637402002.591
2085623.0,1637402002.631
2084744.0,1637402002.673
2084402.0,1637402002.713
2084461.0,1637402002.75
2084628.0,1637402002.789
2084445.0,1637402002.828
2084252.0,1637402002.869
2084148.0,1637402002.911
2084722.0,1637402002.949
2085456.0,1637402002.989
2085515.0,1637402003.031
2084191.0,1637402003.07
2081178.0,1637402003.111
2079663.0,1637402003.15
2079849.0,1637402003.188
2080923.0,1637402003.229
2087662.0,1637402003.269
2099609.0,1637402003.303
2108694.0,1637402003.342
2115946.0,1637402003.383
2122441.0,1637402003.423
2128158.0,1637402003.463
2132996.0,1637402003.504
2138656.0,1637402003.543
2144734.0,1637402003.583
2149189.0,1637402003.624
2150189.0,1637402003.663
2147453.0,1637402003.704
2152618.0,1637402003.744
2162246.0,1637402003.783
2166502.0,1637402003.823
2167154.0,1637402003.864
2166844.0,1637402003.904
2164625.0,1637402003.944
2158318.0,1637402003.978
2151317.0,1637402004.01
2145661.0,1637402004.048
2140737.0,1637402004.09
2135870.0,1637402004.128
2131527.0,1637402004.169
2127047.0,1637402004.21
2123661.0,1637402004.249
2121048.0,1637402004.29
2119159.0,1637402004.331
2117884.0,1637402004.368
2116149.0,1637402004.408
2116149.0,1637402004.444
2114549.0,1637402004.484
2113440.0,1637402004.523
2112195.0,1637402004.565
2111242.0,1637402004.604
2109794.0,1637402004.644
2109259.0,1637402004.686
2108244.0,1637402004.724
2107209.0,1637402004.764
2106705.0,1637402004.805
2105647.0,1637402004.844
2105123.0,1637402004.885
2104490.0,1637402004.925
2101388.0,1637402004.964
2097308.0,1637402005.004
2093216.0,1637402005.046
2089838.0,1637402005.085
2086906.0,1637402005.126
2084887.0,1637402005.167
2083189.0,1637402005.206
2081337.0,1637402005.247
2079607.0,1637402005.288
2077739.0,1637402005.327
2076806.0,1637402005.368
2075381.0,1637402005.41
2074762.0,1637402005.448
2074301.0,1637402005.489
2074817.0,1637402005.53
2078852.0,1637402005.564
2083758.0,1637402005.604
2087206.0,1637402005.645
2090679.0,1637402005.685
2094266.0,1637402005.724
2099446.0,1637402005.765
2105144.0,1637402005.804
2110302.0,1637402005.844
2112842.0,1637402005.886
2115636.0,1637402005.925
2118276.0,1637402005.965
2119962.0,1637402006.006
2122543.0,1637402006.045
2128100.0,1637402006.086
2131912.0,1637402006.126
2133418.0,1637402006.165
2133578.0,1637402006.205
2133013.0,1637402006.247
2131691.0,1637402006.287
2128155.0,1637402006.327
2124133.0,1637402006.368
2119494.0,1637402006.407
2118272.0,1637402006.447
2118591.0,1637402006.49
2118525.0,1637402006.529
2116517.0,1637402006.569
2114029.0,1637402006.61
2112383.0,1637402006.649
2111444.0,1637402006.69
2110598.0,1637402006.731
2110832.0,1637402006.77
2109971.0,1637402006.81
2107789.0,1637402006.849
2103867.0,1637402006.887
2100617.0,1637402006.926
2099339.0,1637402006.967
2098106.0,1637402007.006
2098373.0,1637402007.047
2099461.0,1637402007.09
2100215.0,1637402007.127
2100696.0,1637402007.167
2100965.0,1637402007.208
2100758.0,1637402007.247
2100925.0,1637402007.288
2101641.0,1637402007.328
2101653.0,1637402007.367
2101078.0,1637402007.407
2100933.0,1637402007.449
2101235.0,1637402007.488
2100878.0,1637402007.528
2100218.0,1637402007.569
2100199.0,1637402007.609
2100642.0,1637402007.649
2101116.0,1637402007.691
2101307.0,1637402007.729
2099452.0,1637402007.769
2096787.0,1637402007.811
2095466.0,1637402007.85
2096107.0,1637402007.891
2097355.0,1637402007.931
2099059.0,1637402007.971
2102529.0,1637402008.009
2106684.0,1637402008.05
2112890.0,1637402008.089
2120504.0,1637402008.129
2126796.0,1637402008.17
2130766.0,1637402008.209
2128859.0,1637402008.249
2133853.0,1637402008.291
2138802.0,1637402008.329
2141504.0,1637402008.369
2142545.0,1637402008.41
2142618.0,1637402008.449
2140784.0,1637402008.49
2139884.0,1637402008.531
2138796.0,1637402008.569
2135610.0,1637402008.61
2131310.0,1637402008.651
2127284.0,1637402008.691
2123206.0,1637402008.73
2119407.0,1637402008.771
2118633.0,1637402008.81
2117587.0,1637402008.851
2115449.0,1637402008.893
2113297.0,1637402008.931
2111170.0,1637402008.971
2109291.0,1637402009.013
2107162.0,1637402009.052
2106116.0,1637402009.092
2104390.0,1637402009.131
2103047.0,1637402009.171
2101536.0,1637402009.211
2099690.0,1637402009.243
2098797.0,1637402009.283
2097716.0,1637402009.322
2096670.0,1637402009.363
2095861.0,1637402009.402
2095632.0,1637402009.443
2095484.0,1637402009.484
2093803.0,1637402009.523
2090636.0,1637402009.563
2088058.0,1637402009.604
2085745.0,1637402009.643
2083667.0,1637402009.684
2082048.0,1637402009.724
2080594.0,1637402009.763
2079328.0,1637402009.803
2078144.0,1637402009.844
2077042.0,1637402009.884
2075910.0,1637402009.921
2074838.0,1637402009.953
2073954.0,1637402009.992
2073917.0,1637402010.029
2076873.0,1637402010.072
2080811.0,1637402010.111
2084464.0,1637402010.151
2089737.0,1637402010.193
2098753.0,1637402010.232
2109278.0,1637402010.273
2121897.0,1637402010.313
2137037.0,1637402010.352
2149028.0,1637402010.393
2158822.0,1637402010.433
2165152.0,1637402010.47
2163410.0,1637402010.51
2168631.0,1637402010.551
2181142.0,1637402010.59
2189086.0,1637402010.63
2192017.0,1637402010.672
2188537.0,1637402010.71
2184301.0,1637402010.75
2177284.0,1637402010.791
2170695.0,1637402010.83
2164598.0,1637402010.871
2158776.0,1637402010.911
2151721.0,1637402010.95
2145974.0,1637402010.99
2142390.0,1637402011.032
2139916.0,1637402011.071
2138079.0,1637402011.111
2136566.0,1637402011.152
2137026.0,1637402011.191
2135907.0,1637402011.231
2132772.0,1637402011.273
2130350.0,1637402011.311
2128992.0,1637402011.351
2127098.0,1637402011.392
2126214.0,1637402011.431
2125341.0,1637402011.472
2125475.0,1637402011.512
2125471.0,1637402011.552
2125758.0,1637402011.593
2125862.0,1637402011.634
2125769.0,1637402011.674
2125704.0,1637402011.713
2125263.0,1637402011.755
2124771.0,1637402011.789
2125488.0,1637402011.829
2126004.0,1637402011.871
2126089.0,1637402011.909
2125909.0,1637402011.95
2126081.0,1637402011.991
2125935.0,1637402012.03
2125936.0,1637402012.07
2125499.0,1637402012.111
2123261.0,1637402012.15
2121196.0,1637402012.19
2119491.0,1637402012.231
2118716.0,1637402012.271
2119373.0,1637402012.31
2122074.0,1637402012.351
2126963.0,1637402012.39
2132383.0,1637402012.43
2136399.0,1637402012.472
2141875.0,1637402012.511
2143697.0,1637402012.551
2144892.0,1637402012.592
2148687.0,1637402012.631
2152806.0,1637402012.671
2155786.0,1637402012.712
2159585.0,1637402012.752
2164382.0,1637402012.792
2168141.0,1637402012.834
2168347.0,1637402012.873
2162851.0,1637402012.913
2167352.0,1637402012.954
2173540.0,1637402012.993
2176306.0,1637402013.024
2176705.0,1637402013.066
2177271.0,1637402013.104
2177421.0,1637402013.144
2174942.0,1637402013.185
2170692.0,1637402013.224
2165761.0,1637402013.265
2160049.0,1637402013.305
2155144.0,1637402013.344
2152423.0,1637402013.384
2150538.0,1637402013.425
2148807.0,1637402013.465
2146892.0,1637402013.504
2145980.0,1637402013.545
2145251.0,1637402013.585
2143710.0,1637402013.625
2141850.0,1637402013.666
2139903.0,1637402013.705
2138736.0,1637402013.745
2137397.0,1637402013.786
2136085.0,1637402013.825
2135008.0,1637402013.866
2131783.0,1637402013.906
2127890.0,1637402013.945
2124559.0,1637402013.985
2121735.0,1637402014.026
2119094.0,1637402014.067
2117102.0,1637402014.105
2115217.0,1637402014.146
2113295.0,1637402014.186
2111641.0,1637402014.227
2110020.0,1637402014.269
2108438.0,1637402014.307
2106797.0,1637402014.34
2105698.0,1637402014.381
2104879.0,1637402014.42
2103935.0,1637402014.461
2103343.0,1637402014.501
2102548.0,1637402014.54
2101836.0,1637402014.58
2101789.0,1637402014.621
2101929.0,1637402014.661
2101508.0,1637402014.7
2102404.0,1637402014.741
2104688.0,1637402014.781
2110699.0,1637402014.821
2118662.0,1637402014.862
2123689.0,1637402014.901
2128698.0,1637402014.941
2134124.0,1637402014.982
2138969.0,1637402015.021
2143434.0,1637402015.063
2149082.0,1637402015.101
2157757.0,1637402015.14
2168821.0,1637402015.178
2179041.0,1637402015.213
2184242.0,1637402015.249
2184835.0,1637402015.286
2192911.0,1637402015.327
2198112.0,1637402015.366
2199089.0,1637402015.407
2197266.0,1637402015.449
2195556.0,1637402015.487
2191450.0,1637402015.527
2186735.0,1637402015.569
2184388.0,1637402015.608
2182006.0,1637402015.766
2182491.0,1637402015.687
2179769.0,1637402015.847
2178589.0,1637402015.886
2178586.0,1637402015.927
2178670.0,1637402015.966
2178720.0,1637402016.006
2182097.0,1637402015.726
2183595.0,1637402015.647
2181129.0,1637402015.807
2178252.0,1637402016.087
2178228.0,1637402016.048
2177311.0,1637402016.127
2174616.0,1637402016.168
2171290.0,1637402016.207
2168450.0,1637402016.248
2165681.0,1637402016.288
2164444.0,1637402016.327
2163134.0,1637402016.367
2161843.0,1637402016.408
2160049.0,1637402016.448
2158965.0,1637402016.488
2157749.0,1637402016.529
2156162.0,1637402016.568
2154374.0,1637402016.607
2152413.0,1637402016.649
2150604.0,1637402016.687
2149367.0,1637402016.727
2148261.0,1637402016.769
2148261.0,1637402016.803
2147351.0,1637402016.843
2146395.0,1637402016.884
2145707.0,1637402016.923
2144913.0,1637402016.963
2142310.0,1637402017.004
2138449.0,1637402017.044
2135536.0,1637402017.083
2133476.0,1637402017.124
2132923.0,1637402017.163
2134093.0,1637402017.203
2137213.0,1637402017.245
2141273.0,1637402017.284
2144546.0,1637402017.324
2148332.0,1637402017.365
2151806.0,1637402017.404
2155754.0,1637402017.444
2159565.0,1637402017.485
2162692.0,1637402017.523
2165599.0,1637402017.56
2167074.0,1637402017.596
2165083.0,1637402017.63
2174884.0,1637402017.668
2185194.0,1637402017.709
2189418.0,1637402017.747
2189454.0,1637402017.788
2185623.0,1637402017.83
2182710.0,1637402017.868
2178790.0,1637402017.908
2174476.0,1637402017.95
2170918.0,1637402017.989
2165694.0,1637402018.03
2158989.0,1637402018.071
2152326.0,1637402018.11
2146123.0,1637402018.15
2141422.0,1637402018.19
2138254.0,1637402018.229
2136201.0,1637402018.269
2135477.0,1637402018.31
2134867.0,1637402018.349
2134426.0,1637402018.39
2133234.0,1637402018.432
2131836.0,1637402018.47
2129890.0,1637402018.508
2127535.0,1637402018.543
2125923.0,1637402018.582
2124873.0,1637402018.623
2123584.0,1637402018.663
2122875.0,1637402018.702
2121882.0,1637402018.742
2120998.0,1637402018.783
2120342.0,1637402018.823
2119884.0,1637402018.863
2119607.0,1637402018.904
2117920.0,1637402018.943
2114002.0,1637402018.983
2110597.0,1637402019.025
2107803.0,1637402019.063
2106281.0,1637402019.103
2104722.0,1637402019.144
2103773.0,1637402019.183
2102847.0,1637402019.224
2101812.0,1637402019.266
2101309.0,1637402019.303
2101295.0,1637402019.341
2101560.0,1637402019.376
2104718.0,1637402019.411
2111189.0,1637402019.448
2117960.0,1637402019.489
2125572.0,1637402019.528
2130470.0,1637402019.569
2140197.0,1637402019.611
2154033.0,1637402019.649
2163514.0,1637402019.689
2170620.0,1637402019.731
2173353.0,1637402019.77
2173353.0,1637402019.803
2165783.0,1637402019.843
2159640.0,1637402019.882
2167691.0,1637402019.923
2173857.0,1637402019.964
2176935.0,1637402020.003
2176964.0,1637402020.043
2177640.0,1637402020.084
2178711.0,1637402020.123
2177592.0,1637402020.163
2175398.0,1637402020.205
2173065.0,1637402020.243
2170043.0,1637402020.283
2165343.0,1637402020.325
2159915.0,1637402020.364
2156037.0,1637402020.404
2152521.0,1637402020.445
2150143.0,1637402020.484
2148669.0,1637402020.525
2147612.0,1637402020.567
2146996.0,1637402020.606
2147467.0,1637402020.646
2147238.0,1637402020.686
2146126.0,1637402020.723
2143089.0,1637402020.764
2139903.0,1637402020.802
2136617.0,1637402020.834
2133873.0,1637402020.875
2131680.0,1637402020.913
2130177.0,1637402020.95
2128803.0,1637402020.995
2127382.0,1637402021.032
2126063.0,1637402021.071
2125222.0,1637402021.111
2124496.0,1637402021.153
2123763.0,1637402021.192
2122457.0,1637402021.23
2122390.0,1637402021.271
2122121.0,1637402021.302
2121827.0,1637402021.342
2121590.0,1637402021.384
2121388.0,1637402021.423
2121410.0,1637402021.463
2121617.0,1637402021.504
2122202.0,1637402021.543
2121000.0,1637402021.584
2118313.0,1637402021.624
2118319.0,1637402021.663
2118800.0,1637402021.703
2121612.0,1637402021.744
2124180.0,1637402021.784
2128973.0,1637402021.823
2132032.0,1637402021.865
2134916.0,1637402021.904
2137773.0,1637402021.944
2143585.0,1637402021.985
2152076.0,1637402022.025
2158452.0,1637402022.063
2164995.0,1637402022.1
2169543.0,1637402022.132
2173682.0,1637402022.17
2177956.0,1637402022.211
2182537.0,1637402022.25
2185770.0,1637402022.331
2186213.0,1637402022.29
2179820.0,1637402022.371
2171312.0,1637402022.444
2171312.0,1637402022.408
2166006.0,1637402022.483
2159428.0,1637402022.565
2161959.0,1637402022.523
2158772.0,1637402022.603
2158063.0,1637402022.643
2157827.0,1637402022.684
2160066.0,1637402022.723
2160893.0,1637402022.764
2159865.0,1637402022.804
2162108.0,1637402022.843
2180680.0,1637402022.883
2193736.0,1637402022.925
2199060.0,1637402022.964
2199297.0,1637402023.004
2198933.0,1637402023.045
2198605.0,1637402023.084
2194716.0,1637402023.125
2190076.0,1637402023.163
2187916.0,1637402023.195
2186267.0,1637402023.233
2181681.0,1637402023.272
2176964.0,1637402023.311
2172432.0,1637402023.352
2168631.0,1637402023.393
2164824.0,1637402023.432
2161588.0,1637402023.472
2159474.0,1637402023.513
2157176.0,1637402023.553
2154552.0,1637402023.593
2152775.0,1637402023.632
2150502.0,1637402023.671
2148310.0,1637402023.712
2147341.0,1637402023.754
2146877.0,1637402023.792
2146257.0,1637402023.832
2145524.0,1637402023.874
2145076.0,1637402023.913
2143973.0,1637402023.953
2143398.0,1637402023.989
2142780.0,1637402024.028
2142385.0,1637402024.068
2141742.0,1637402024.109
2141092.0,1637402024.149
2138048.0,1637402024.189
2132138.0,1637402024.23
2126402.0,1637402024.269
2122092.0,1637402024.309
2117991.0,1637402024.351
2114616.0,1637402024.389
2112602.0,1637402024.429
2110400.0,1637402024.47
2107912.0,1637402024.509
2105827.0,1637402024.55
2104548.0,1637402024.59
2105574.0,1637402024.629
2108281.0,1637402024.67
2110448.0,1637402024.712
2114142.0,1637402024.751
2116379.0,1637402024.791
2119955.0,1637402024.833
2126474.0,1637402024.872
2135732.0,1637402024.911
2143732.0,1637402024.95
2154153.0,1637402024.989
2163515.0,1637402025.028
2168544.0,1637402025.067
2170353.0,1637402025.106
2175001.0,1637402025.145
2184475.0,1637402025.184
2189697.0,1637402025.223
2191822.0,1637402025.262
2189857.0,1637402025.301
2184263.0,1637402025.34
2178033.0,1637402025.379
2171676.0,1637402025.418
2165465.0,1637402025.457
2158574.0,1637402025.496
2154181.0,1637402025.535
2150053.0,1637402025.574
2146406.0,1637402025.613
2144727.0,1637402025.652
2143075.0,1637402025.691
2142188.0,1637402025.73
2142012.0,1637402025.769
2141987.0,1637402025.808
2140818.0,1637402025.847
2140079.0,1637402025.886
2139529.0,1637402025.925
2138957.0,1637402025.964
2135475.0,1637402026.003
2130042.0,1637402026.042
2124779.0,1637402026.081
2120897.0,1637402026.12
2117476.0,1637402026.159
2113791.0,1637402026.198
2111779.0,1637402026.237
2109520.0,1637402026.276
2106943.0,1637402026.315
2104889.0,1637402026.354
2102870.0,1637402026.393
2100972.0,1637402026.432
2099642.0,1637402026.471
2098055.0,1637402026.51
2096553.0,1637402026.549
2095537.0,1637402026.588
2094247.0,1637402026.666
2093380.0,1637402026.705
2093212.0,1637402026.744
2094974.0,1637402026.627
2093186.0,1637402026.783
2093434.0,1637402026.822
2091083.0,1637402026.861
2093137.0,1637402026.939
2090997.0,1637402026.9
2097809.0,1637402027.017
2105228.0,1637402027.056
2094708.0,1637402026.978
2117702.0,1637402027.095
2125042.0,1637402027.134
2130107.0,1637402027.173
2142884.0,1637402027.212
2153092.0,1637402027.251
2159601.0,1637402027.29
2157420.0,1637402027.329
2149621.0,1637402027.368
2142837.0,1637402027.407
2137857.0,1637402027.446
2132884.0,1637402027.485
2126959.0,1637402027.563
2122334.0,1637402027.641
2110937.0,1637402027.721
2106365.0,1637402027.761
2103156.0,1637402027.801
2116841.0,1637402027.681
2125493.0,1637402027.602
2129650.0,1637402027.524
2101372.0,1637402027.841
2099513.0,1637402027.881
2097260.0,1637402027.921
2094929.0,1637402027.961
2093224.0,1637402028.001
2092355.0,1637402028.041
2090651.0,1637402028.081
2089321.0,1637402028.121
2088400.0,1637402028.161
2087259.0,1637402028.201
2086812.0,1637402028.241
2086166.0,1637402028.281
2085527.0,1637402028.321
2084923.0,1637402028.361
2084451.0,1637402028.401
2083908.0,1637402028.441
2083303.0,1637402028.481
2082050.0,1637402028.521
2077570.0,1637402028.561
2072488.0,1637402028.601
2068313.0,1637402028.641
2064761.0,1637402028.681
2062015.0,1637402028.721
2059604.0,1637402028.761
2058050.0,1637402028.801
2056287.0,1637402028.841
2055102.0,1637402028.881
2056110.0,1637402028.921
2056696.0,1637402028.961
2058471.0,1637402029.001
2065275.0,1637402029.041
2072728.0,1637402029.081
2081232.0,1637402029.121
2088239.0,1637402029.161
2095919.0,1637402029.201
2101737.0,1637402029.241
2107206.0,1637402029.281
2116795.0,1637402029.321
2125998.0,1637402029.361
2132611.0,1637402029.401
2132252.0,1637402029.441
2126718.0,1637402029.481
2117510.0,1637402029.521
2108067.0,1637402029.561
2099950.0,1637402029.601
2093627.0,1637402029.641
2088581.0,1637402029.681
2084128.0,1637402029.721
2079275.0,1637402029.761
2076574.0,1637402029.801
2074227.0,1637402029.841
2071935.0,1637402029.881
2070984.0,1637402029.921
2069722.0,1637402029.961
2068581.0,1637402030.001
2067686.0,1637402030.041
2067060.0,1637402030.081
2066290.0,1637402030.121
2065763.0,1637402030.161
2065319.0,1637402030.201
2064895.0,1637402030.241
2064710.0,1637402030.281
2064724.0,1637402030.321
2064499.0,1637402030.361
2061677.0,1637402030.401
2057533.0,1637402030.441
2053681.0,1637402030.481
2050742.0,1637402030.521
2048062.0,1637402030.561
2045793.0,1637402030.601
2044610.0,1637402030.641
2042587.0,1637402030.681
2041365.0,1637402030.721
2040092.0,1637402030.761
2038591.0,1637402030.801
2037891.0,1637402030.841
2036985.0,1637402030.881
2036888.0,1637402030.921
2036793.0,1637402030.961
2039403.0,1637402031.001
2049358.0,1637402031.041
2060043.0,1637402031.081
2066787.0,1637402031.121
2069770.0,1637402031.161
2072038.0,1637402031.201
2074427.0,1637402031.241
2078325.0,1637402031.281
2084136.0,1637402031.321
2088935.0,1637402031.361
2092478.0,1637402031.401
2094475.0,1637402031.441
2095200.0,1637402031.481
2094926.0,1637402031.521
2096159.0,1637402031.561
2097807.0,1637402031.601
2099574.0,1637402031.641
2099387.0,1637402031.681
2098009.0,1637402031.721
2098877.0,1637402031.761
2106631.0,1637402031.801
2111621.0,1637402031.841
2113262.0,1637402031.881
2115714.0,1637402031.921
2118662.0,1637402031.961
2116073.0,1637402032.001
2112921.0,1637402032.041
2110134.0,1637402032.081
2107033.0,1637402032.121
2103123.0,1637402032.161
2100496.0,1637402032.201
2098699.0,1637402032.241
2097602.0,1637402032.281
2097652.0,1637402032.321
2096953.0,1637402032.361
2094214.0,1637402032.401
2090892.0,1637402032.441
2089231.0,1637402032.481
2087803.0,1637402032.521
2086757.0,1637402032.561
2086160.0,1637402032.601
2085606.0,1637402032.641
2085129.0,1637402032.681
2084298.0,1637402032.721
2083996.0,1637402032.761
2083424.0,1637402032.801
2083573.0,1637402032.841
2083409.0,1637402032.881
2083606.0,1637402032.921
2083427.0,1637402032.961
2083400.0,1637402033.001
2083044.0,1637402033.041
2083335.0,1637402033.081
2083654.0,1637402033.121
2083617.0,1637402033.161
2083909.0,1637402033.201
2084151.0,1637402033.241
2084680.0,1637402033.281
2085002.0,1637402033.321
2084124.0,1637402033.361
2082270.0,1637402033.401
2080924.0,1637402033.441
2081408.0,1637402033.481
2084499.0,1637402033.521
2088006.0,1637402033.561
2095890.0,1637402033.601
2103452.0,1637402033.641
2107861.0,1637402033.681
2115163.0,1637402033.721
2125701.0,1637402033.761
2137887.0,1637402033.801
2150851.0,1637402033.841
2158994.0,1637402033.881
2164943.0,1637402033.921
2170214.0,1637402033.961
2175349.0,1637402034.001
2178308.0,1637402034.041
2178250.0,1637402034.081
2175764.0,1637402034.121
2175764.0,1637402034.161
2173298.0,1637402034.201
2171019.0,1637402034.241
2170065.0,1637402034.281
2166961.0,1637402034.321
2163721.0,1637402034.361
2171658.0,1637402034.401
2176695.0,1637402034.441
2179722.0,1637402034.481
2183090.0,1637402034.521
2181764.0,1637402034.561
2177410.0,1637402034.601
2174373.0,1637402034.641
2168850.0,1637402034.681
2163419.0,1637402034.721
2158462.0,1637402034.761
2156224.0,1637402034.801
2156101.0,1637402034.841
2155166.0,1637402034.881
2154550.0,1637402034.921
2156142.0,1637402034.961
2157950.0,1637402035.001
2159593.0,1637402035.041
2160253.0,1637402035.081
2161008.0,1637402035.121
2161184.0,1637402035.161
2160262.0,1637402035.201
2158865.0,1637402035.241
2156799.0,1637402035.281
2154354.0,1637402035.321
2151276.0,1637402035.361
2148322.0,1637402035.401
2145407.0,1637402035.441
2142327.0,1637402035.481
2140293.0,1637402035.521
2138373.0,1637402035.561
2137294.0,1637402035.601
2135881.0,1637402035.641
2134387.0,1637402035.681
2133550.0,1637402035.721
2132478.0,1637402035.761
2132306.0,1637402035.801
2132231.0,1637402035.841
2131857.0,1637402035.881
2132359.0,1637402035.921
2132310.0,1637402035.961
2134030.0,1637402036.001
2136766.0,1637402036.041
2140789.0,1637402036.081
2146013.0,1637402036.121
2153265.0,1637402036.161
2166055.0,1637402036.241
2160287.0,1637402036.201
2174554.0,1637402036.281
2183600.0,1637402036.321
2192817.0,1637402036.361
2198089.0,1637402036.401
2202187.0,1637402036.441
2208444.0,1637402036.481
2217182.0,1637402036.521
2220232.0,1637402036.561
2221054.0,1637402036.601
2220447.0,1637402036.641
2217590.0,1637402036.681
2213965.0,1637402036.721
2208098.0,1637402036.761
2201731.0,1637402036.801
2197083.0,1637402036.884
2193438.0,1637402036.926
2189528.0,1637402036.965
2188340.0,1637402037.005
2186959.0,1637402037.046
2186054.0,1637402037.085
2185478.0,1637402037.125
2183336.0,1637402037.166
2177731.0,1637402037.205
2170823.0,1637402037.245
2164564.0,1637402037.286
2158607.0,1637402037.327
2153254.0,1637402037.366
2149578.0,1637402037.408
2145827.0,1637402037.447
2141677.0,1637402037.487
2137691.0,1637402037.529
2133989.0,1637402037.565
2130667.0,1637402037.606
2128098.0,1637402037.647
2125961.0,1637402037.686
2124303.0,1637402037.727
2122819.0,1637402037.768
2121573.0,1637402037.8
2120309.0,1637402037.84
2119371.0,1637402037.881
2119684.0,1637402037.922
2120064.0,1637402037.96
2120330.0,1637402038.001
2120634.0,1637402038.04
2120538.0,1637402038.08
2118738.0,1637402038.122
2113897.0,1637402038.161
2109775.0,1637402038.201
2107255.0,1637402038.242
2106304.0,1637402038.281
2106904.0,1637402038.321
2113321.0,1637402038.362
2122425.0,1637402038.401
2128219.0,1637402038.441
2134591.0,1637402038.482
2144036.0,1637402038.521
2154845.0,1637402038.558
2163167.0,1637402038.593
2170198.0,1637402038.628
2173180.0,1637402038.665
2176715.0,1637402038.707
2180389.0,1637402038.746
2183064.0,1637402038.786
2185808.0,1637402038.827
2186743.0,1637402038.866
2183855.0,1637402038.905
2183855.0,1637402038.941
2178421.0,1637402038.98
2174320.0,1637402039.02
2169132.0,1637402039.061
2161713.0,1637402039.101
2153854.0,1637402039.141
2146199.0,1637402039.182
2138163.0,1637402039.221
2129336.0,1637402039.261
2122723.0,1637402039.303
2118471.0,1637402039.341
2114055.0,1637402039.381
2109102.0,1637402039.422
2104480.0,1637402039.461
2100415.0,1637402039.502
2096765.0,1637402039.542
2093905.0,1637402039.581
2091731.0,1637402039.622
2089336.0,1637402039.662
2087640.0,1637402039.699
2086236.0,1637402039.739
2084975.0,1637402039.774
2084134.0,1637402039.813
2082934.0,1637402039.849
2082555.0,1637402039.893
2081875.0,1637402039.927
2081218.0,1637402039.967
2080738.0,1637402040.009
2080555.0,1637402040.048
2076440.0,1637402040.089
2069950.0,1637402040.13
2064191.0,1637402040.167
2059263.0,1637402040.206
2055561.0,1637402040.247
2052871.0,1637402040.283
2050476.0,1637402040.322
2048249.0,1637402040.363
2045931.0,1637402040.402
2043992.0,1637402040.442
2042653.0,1637402040.484
2041575.0,1637402040.523
2041648.0,1637402040.563
2042176.0,1637402040.604
2044454.0,1637402040.643
2050998.0,1637402040.683
2059613.0,1637402040.724
2067425.0,1637402040.763
2075963.0,1637402040.803
2081772.0,1637402040.844
2085391.0,1637402040.884
2090242.0,1637402040.923
2098294.0,1637402040.965
2103151.0,1637402041.005
2103843.0,1637402041.045
2100750.0,1637402041.087
2096042.0,1637402041.126
2087763.0,1637402041.166
2079817.0,1637402041.208
2072559.0,1637402041.247
2066445.0,1637402041.288
2062218.0,1637402041.329
2058000.0,1637402041.368
2054234.0,1637402041.408
2052111.0,1637402041.45
2050915.0,1637402041.489
2048939.0,1637402041.529
2047783.0,1637402041.569
2046958.0,1637402041.602
2045688.0,1637402041.642
2043998.0,1637402041.684
2042384.0,1637402041.723
2041634.0,1637402041.763
2040318.0,1637402041.804
2039437.0,1637402041.843
2038687.0,1637402041.884
2037703.0,1637402041.924
2032728.0,1637402041.963
2026531.0,1637402042.003
2021798.0,1637402042.044
2018052.0,1637402042.084
2014727.0,1637402042.123
2011755.0,1637402042.164
2009263.0,1637402042.203
2007046.0,1637402042.244
2004802.0,1637402042.28
2002843.0,1637402042.318
2001744.0,1637402042.353
2000741.0,1637402042.391
2000154.0,1637402042.427
2000666.0,1637402042.468
2000910.0,1637402042.508
2001247.0,1637402042.548
2003896.0,1637402042.588
2006766.0,1637402042.629
2011752.0,1637402042.669
2018177.0,1637402042.709
2029599.0,1637402042.75
2046219.0,1637402042.787
2059968.0,1637402042.827
2070330.0,1637402042.869
2077998.0,1637402042.908
2077998.0,1637402042.944
2083070.0,1637402042.985
2083988.0,1637402043.024
2091167.0,1637402043.065
2096149.0,1637402043.105
2098347.0,1637402043.144
2101043.0,1637402043.184
2099615.0,1637402043.226
2095656.0,1637402043.265
2091006.0,1637402043.305
2083795.0,1637402043.346
2077351.0,1637402043.385
2071388.0,1637402043.425
2066018.0,1637402043.467
2062158.0,1637402043.505
2058607.0,1637402043.545
2055864.0,1637402043.586
2053863.0,1637402043.625
2052969.0,1637402043.666
2052325.0,1637402043.706
2048184.0,1637402043.745
2042483.0,1637402043.785
2036297.0,1637402043.826
2031537.0,1637402043.867
2027124.0,1637402043.906
2023843.0,1637402043.947
2020403.0,1637402043.986
2016709.0,1637402044.026
2013691.0,1637402044.068
2010394.0,1637402044.107
2007542.0,1637402044.148
2005339.0,1637402044.189
2003850.0,1637402044.228
2002332.0,1637402044.264
2000785.0,1637402044.304
1999797.0,1637402044.343
1999206.0,1637402044.383
1998406.0,1637402044.424
1998074.0,1637402044.464
1997626.0,1637402044.503
1997597.0,1637402044.545
1997567.0,1637402044.584
1997113.0,1637402044.624
1993290.0,1637402044.665
1986865.0,1637402044.744
1986869.0,1637402044.785
1988523.0,1637402044.704
1989375.0,1637402044.824
1993554.0,1637402044.865
1998422.0,1637402044.905
2002935.0,1637402044.945
2009499.0,1637402044.984
2018055.0,1637402045.025
2022737.0,1637402045.063
2032199.0,1637402045.14
2024471.0,1637402045.099
2040802.0,1637402045.173
2044890.0,1637402045.211
2045630.0,1637402045.251
2045153.0,1637402045.289
2042615.0,1637402045.33
2038163.0,1637402045.371
2033301.0,1637402045.41
2028302.0,1637402045.451
2024478.0,1637402045.491
2018621.0,1637402045.524
2012292.0,1637402045.564
2006577.0,1637402045.605
2002260.0,1637402045.645
1998018.0,1637402045.684
1994579.0,1637402045.725
1991744.0,1637402045.764
1989266.0,1637402045.804
1987012.0,1637402045.846
1985251.0,1637402045.884
1983544.0,1637402045.925
1982255.0,1637402045.966
1981542.0,1637402046.005
1980961.0,1637402046.045
1980210.0,1637402046.086
1979966.0,1637402046.125
1979830.0,1637402046.165
1979665.0,1637402046.201
1979781.0,1637402046.241
1979958.0,1637402046.275
1980021.0,1637402046.312
1980089.0,1637402046.349
1980483.0,1637402046.389
1980962.0,1637402046.431
1978789.0,1637402046.469
1974874.0,1637402046.51
1971817.0,1637402046.551
1969225.0,1637402046.59
1966960.0,1637402046.631
1965318.0,1637402046.672
1965318.0,1637402046.703
1963995.0,1637402046.743
1963164.0,1637402046.784
1962836.0,1637402046.824
1965175.0,1637402046.863
1969193.0,1637402046.904
1977180.0,1637402046.943
1986862.0,1637402046.983
1995807.0,1637402047.025
2006642.0,1637402047.063
2017342.0,1637402047.104
2026599.0,1637402047.145
2035211.0,1637402047.184
2043782.0,1637402047.224
2052266.0,1637402047.265
2058155.0,1637402047.304
2062491.0,1637402047.344
2067290.0,1637402047.385
2071081.0,1637402047.418
2074517.0,1637402047.452
2078439.0,1637402047.491
2081186.0,1637402047.53
2084677.0,1637402047.571
2084897.0,1637402047.613
2084620.0,1637402047.651
2100613.0,1637402047.691
2114012.0,1637402047.733
2120823.0,1637402047.772
2121864.0,1637402047.813
2120156.0,1637402047.852
2113255.0,1637402047.89
2109623.0,1637402047.93
2104642.0,1637402047.971
2100051.0,1637402048.011
2096620.0,1637402048.05
2092843.0,1637402048.091
2090192.0,1637402048.13
2089208.0,1637402048.17
2088655.0,1637402048.212
2088860.0,1637402048.25
2087943.0,1637402048.291
2086589.0,1637402048.371
2087083.0,1637402048.332
2086199.0,1637402048.411
2085633.0,1637402048.452
2085041.0,1637402048.491
2083956.0,1637402048.531
2081627.0,1637402048.572
2078851.0,1637402048.612
2076817.0,1637402048.652
2075599.0,1637402048.693
2075215.0,1637402048.732
2074662.0,1637402048.767
2073669.0,1637402048.808
2073104.0,1637402048.847
2072721.0,1637402048.887
2073120.0,1637402048.928
2072979.0,1637402048.967
2073053.0,1637402049.008
2073144.0,1637402049.048
2073390.0,1637402049.087
2073852.0,1637402049.127
2074620.0,1637402049.168
2075585.0,1637402049.208
2076809.0,1637402049.247
2078261.0,1637402049.289
2080544.0,1637402049.328
2083279.0,1637402049.368
2086446.0,1637402049.409
2089646.0,1637402049.448
2092662.0,1637402049.488
2094095.0,1637402049.529
2094940.0,1637402049.568
2100111.0,1637402049.609
2106465.0,1637402049.649
2114848.0,1637402049.688
2119599.0,1637402049.729
2119515.0,1637402049.771
2118962.0,1637402049.81
2124886.0,1637402049.85
2135264.0,1637402049.89
2139481.0,1637402049.929
2139761.0,1637402049.969
2137231.0,1637402050.011
2132868.0,1637402050.049
2129905.0,1637402050.09
2127526.0,1637402050.131
2124942.0,1637402050.17
2122695.0,1637402050.211
2120246.0,1637402050.25
2117914.0,1637402050.289
2118028.0,1637402050.329
2119073.0,1637402050.371
2119603.0,1637402050.404
2119969.0,1637402050.444
2120994.0,1637402050.485
2120665.0,1637402050.524
2118405.0,1637402050.564
2115497.0,1637402050.606
2113878.0,1637402050.644
2112858.0,1637402050.684
2112586.0,1637402050.725
2112544.0,1637402050.764
2112849.0,1637402050.805
2112877.0,1637402050.846
2112455.0,1637402050.885
2113000.0,1637402050.925
2113954.0,1637402050.966
2114677.0,1637402051.005
2115398.0,1637402051.045
2116976.0,1637402051.086
2118043.0,1637402051.126
2119341.0,1637402051.167
2119900.0,1637402051.209
2120956.0,1637402051.247
2122187.0,1637402051.288
2122924.0,1637402051.329
2124336.0,1637402051.369
2125609.0,1637402051.409
2127892.0,1637402051.45
2128625.0,1637402051.489
2128993.0,1637402051.53
2129402.0,1637402051.571
2134884.0,1637402051.61
2145332.0,1637402051.646
2160061.0,1637402051.687
2172794.0,1637402051.726
2183473.0,1637402051.766
2190792.0,1637402051.808
2193110.0,1637402051.847
2192521.0,1637402051.887
2197684.0,1637402051.928
2201990.0,1637402051.967
2202130.0,1637402052.008
2204175.0,1637402052.048
2205136.0,1637402052.087
2201813.0,1637402052.127
2198579.0,1637402052.168
2196840.0,1637402052.208
2198685.0,1637402052.247
2200170.0,1637402052.288
2199677.0,1637402052.328
2196184.0,1637402052.369
2192129.0,1637402052.411
2190315.0,1637402052.449
2187731.0,1637402052.489
2185592.0,1637402052.531
2184049.0,1637402052.57
2182595.0,1637402052.611
2181085.0,1637402052.652
2179472.0,1637402052.691
2177404.0,1637402052.73
2176421.0,1637402052.766
2175772.0,1637402052.807
2174975.0,1637402052.846
2175061.0,1637402052.887
2174540.0,1637402052.926
2173832.0,1637402052.966
2173222.0,1637402053.008
2173041.0,1637402053.046
2172347.0,1637402053.086
2171879.0,1637402053.127
2171447.0,1637402053.166
2170453.0,1637402053.207
2167970.0,1637402053.247
2165082.0,1637402053.286
2162627.0,1637402053.326
2160105.0,1637402053.367
2158826.0,1637402053.407
2157623.0,1637402053.447
2157005.0,1637402053.489
2156894.0,1637402053.532
2156635.0,1637402053.572
2158135.0,1637402053.614
2164133.0,1637402053.653
2166041.0,1637402053.692
2163283.0,1637402053.731
2163680.0,1637402053.77
2163626.0,1637402053.811
2163581.0,1637402053.851
2163276.0,1637402053.886
2161661.0,1637402053.926
2159080.0,1637402053.967
2159237.0,1637402054.007
2170557.0,1637402054.046
2176035.0,1637402054.087
2175887.0,1637402054.126
2174559.0,1637402054.166
2175899.0,1637402054.208
2176090.0,1637402054.247
2174869.0,1637402054.287
2174208.0,1637402054.328
2172041.0,1637402054.367
2168710.0,1637402054.408
2166218.0,1637402054.448
2164092.0,1637402054.487
2163089.0,1637402054.527
2162765.0,1637402054.568
2162755.0,1637402054.606
2163068.0,1637402054.644
2163798.0,1637402054.685
2164427.0,1637402054.721
2164968.0,1637402054.754
2166127.0,1637402054.796
2166708.0,1637402054.832
2167084.0,1637402054.87
2167735.0,1637402054.911
2168536.0,1637402054.95
2168942.0,1637402054.994
2169158.0,1637402055.034
2170071.0,1637402055.073
2169297.0,1637402055.113
2167232.0,1637402055.155
2164857.0,1637402055.194
2162604.0,1637402055.234
2160029.0,1637402055.275
2158836.0,1637402055.314
2157562.0,1637402055.354
2156885.0,1637402055.396
2156029.0,1637402055.434
2155392.0,1637402055.474
2155251.0,1637402055.515
2155225.0,1637402055.554
2155058.0,1637402055.595
2155077.0,1637402055.635
2155626.0,1637402055.673
2156922.0,1637402055.71
2159265.0,1637402055.751
2162856.0,1637402055.791
2169406.0,1637402055.831
2175933.0,1637402055.872
2180987.0,1637402055.911
2185118.0,1637402055.952
2190710.0,1637402055.994
2195129.0,1637402056.03
2197837.0,1637402056.07
2200185.0,1637402056.112
2200185.0,1637402056.143
2199320.0,1637402056.184
2195426.0,1637402056.225
2195862.0,1637402056.264
2206316.0,1637402056.304
2212965.0,1637402056.345
2212391.0,1637402056.385
2209381.0,1637402056.424
2207553.0,1637402056.465
2203353.0,1637402056.504
2198085.0,1637402056.544
2193981.0,1637402056.586
2191059.0,1637402056.624
2190182.0,1637402056.664
2188781.0,1637402056.706
2187855.0,1637402056.745
2187674.0,1637402056.785
2186922.0,1637402056.827
2187620.0,1637402056.863
2188065.0,1637402056.904
2187769.0,1637402056.939
2187550.0,1637402056.974
2186317.0,1637402057.012
2184207.0,1637402057.053
2181545.0,1637402057.092
2177377.0,1637402057.133
2173160.0,1637402057.174
2169118.0,1637402057.213
2165801.0,1637402057.244
2162634.0,1637402057.286
2159479.0,1637402057.325
2157493.0,1637402057.365
2155703.0,1637402057.406
2153936.0,1637402057.445
2152432.0,1637402057.485
2150916.0,1637402057.526
2149566.0,1637402057.566
2149271.0,1637402057.605
2148498.0,1637402057.646
2148147.0,1637402057.685
2147851.0,1637402057.725
2147368.0,1637402057.767
2146863.0,1637402057.805
2146662.0,1637402057.845
2146511.0,1637402057.887
2146679.0,1637402057.926
2146890.0,1637402057.966
2147750.0,1637402058.007
2148128.0,1637402058.046
2147216.0,1637402058.086
2150439.0,1637402058.127
2154910.0,1637402058.16
2158697.0,1637402058.2
2161304.0,1637402058.235
2164383.0,1637402058.271
2169044.0,1637402058.311
2172331.0,1637402058.353
2172944.0,1637402058.392
2172944.0,1637402058.428
2172621.0,1637402058.469
2170955.0,1637402058.508
2173629.0,1637402058.549
2186013.0,1637402058.589
2192097.0,1637402058.628
2193822.0,1637402058.668
2194527.0,1637402058.709
2197666.0,1637402058.749
2199023.0,1637402058.789
2201296.0,1637402058.83
2201170.0,1637402058.869
2198332.0,1637402058.909
2207101.0,1637402058.951
2213753.0,1637402058.989
2215059.0,1637402059.029
2214268.0,1637402059.07
2214454.0,1637402059.109
2214228.0,1637402059.15
2213310.0,1637402059.19
2214720.0,1637402059.23
2214739.0,1637402059.27
2213658.0,1637402059.311
2213680.0,1637402059.352
2212626.0,1637402059.392
2211171.0,1637402059.433
2210755.0,1637402059.472
2210806.0,1637402059.512
2210860.0,1637402059.554
2211176.0,1637402059.592
2211692.0,1637402059.632
2212386.0,1637402059.673
2212908.0,1637402059.712
2213115.0,1637402059.754
2214033.0,1637402059.794
2214137.0,1637402059.833
2213345.0,1637402059.873
2212867.0,1637402059.914
2212453.0,1637402059.954
2210127.0,1637402059.993
2207587.0,1637402060.034
2204182.0,1637402060.073
2201031.0,1637402060.113
2198726.0,1637402060.155
2197254.0,1637402060.193
2195946.0,1637402060.233
2194627.0,1637402060.274
2193780.0,1637402060.313
2192487.0,1637402060.354
2191719.0,1637402060.395
2191483.0,1637402060.432
2191212.0,1637402060.472
2190887.0,1637402060.514
2191560.0,1637402060.554
2191660.0,1637402060.593
2192155.0,1637402060.634
2192593.0,1637402060.674
2194145.0,1637402060.713
2196636.0,1637402060.752
2199594.0,1637402060.791
2203582.0,1637402060.83
2209242.0,1637402060.869
2217180.0,1637402060.908
2228013.0,1637402060.947
2234799.0,1637402060.986
2235664.0,1637402061.025
2231996.0,1637402061.064
2230744.0,1637402061.103
2234661.0,1637402061.142
2243219.0,1637402061.181
2246721.0,1637402061.22
2239350.0,1637402061.298
2245163.0,1637402061.259
2233917.0,1637402061.337
2229517.0,1637402061.376
2226159.0,1637402061.415
2222556.0,1637402061.454
2219910.0,1637402061.493
2218747.0,1637402061.532
2217334.0,1637402061.571
2215926.0,1637402061.61
2214421.0,1637402061.649
2213074.0,1637402061.688
2211556.0,1637402061.727
2209521.0,1637402061.766
2207584.0,1637402061.805
2205939.0,1637402061.844
2202748.0,1637402061.883
2198210.0,1637402061.922
2193963.0,1637402061.961
2190446.0,1637402062.0
2186915.0,1637402062.039
2181669.0,1637402062.117
2179369.0,1637402062.156
2177066.0,1637402062.195
2175006.0,1637402062.234
2173060.0,1637402062.273
2171048.0,1637402062.312
2183956.0,1637402062.078
2169612.0,1637402062.351
2168303.0,1637402062.39
2166677.0,1637402062.429
2165770.0,1637402062.468
2165044.0,1637402062.507
2164319.0,1637402062.546
2163875.0,1637402062.585
2163156.0,1637402062.663
2163359.0,1637402062.702
2163671.0,1637402062.741
2164781.0,1637402062.78
2168881.0,1637402062.819
2171881.0,1637402062.858
2177704.0,1637402062.897
2192760.0,1637402062.936
2205600.0,1637402062.975
2217513.0,1637402063.014
2226555.0,1637402063.053
2236365.0,1637402063.092
2243232.0,1637402063.131
2244447.0,1637402063.17
2247441.0,1637402063.209
2253795.0,1637402063.248
2253989.0,1637402063.404
2249526.0,1637402063.443
2246138.0,1637402063.482
2243614.0,1637402063.521
2240908.0,1637402063.56
2238401.0,1637402063.599
2236194.0,1637402063.638
2233898.0,1637402063.677
2231566.0,1637402063.716
2228868.0,1637402063.755
2224984.0,1637402063.794
2219474.0,1637402063.833
2214456.0,1637402063.872
2256530.0,1637402063.365
2256831.0,1637402063.326
2255847.0,1637402063.287
2209750.0,1637402063.911
2204919.0,1637402063.95
2200410.0,1637402063.989
2163336.0,1637402062.624
2192316.0,1637402064.067
2196604.0,1637402064.028
2185796.0,1637402064.145
2188815.0,1637402064.106
2180573.0,1637402064.223
2183018.0,1637402064.184
2178151.0,1637402064.262
2176566.0,1637402064.301
2175186.0,1637402064.34
2173548.0,1637402064.379
2172478.0,1637402064.418
2171560.0,1637402064.457
2170503.0,1637402064.496
2169683.0,1637402064.535
2168866.0,1637402064.574
2168483.0,1637402064.613
2168040.0,1637402064.652
2167983.0,1637402064.691
2167720.0,1637402064.73
2166643.0,1637402064.769
2163996.0,1637402064.808
2163206.0,1637402064.847
2166214.0,1637402064.886
2167858.0,1637402064.925
2173521.0,1637402064.964
2180429.0,1637402065.003
2184537.0,1637402065.042
2187910.0,1637402065.081
2190860.0,1637402065.12
2194699.0,1637402065.159
2198845.0,1637402065.198
2201903.0,1637402065.237
2206130.0,1637402065.276
2206968.0,1637402065.315
2205744.0,1637402065.354
2206160.0,1637402065.393
2205752.0,1637402065.432
2203999.0,1637402065.471
2201827.0,1637402065.51
2200313.0,1637402065.549
2200313.0,1637402065.588
2197139.0,1637402065.627
2200725.0,1637402065.666
2210323.0,1637402065.705
2212742.0,1637402065.744
2212290.0,1637402065.783
2211541.0,1637402065.822
2209258.0,1637402065.861
2207768.0,1637402065.901
2206830.0,1637402065.941
2203312.0,1637402066.021
2199922.0,1637402066.101
2201075.0,1637402066.061
2206243.0,1637402065.981
2197672.0,1637402066.181
2199127.0,1637402066.141
2196037.0,1637402066.261
2197223.0,1637402066.221
2194766.0,1637402066.301
2194239.0,1637402066.341
2194393.0,1637402066.381
2193707.0,1637402066.421
2192581.0,1637402066.461
2190560.0,1637402066.501
2189013.0,1637402066.541
2186843.0,1637402066.581
2184242.0,1637402066.621
2181462.0,1637402066.661
2178667.0,1637402066.701
2176157.0,1637402066.741
2173350.0,1637402066.781
2167944.0,1637402066.821
2162343.0,1637402066.861
2157401.0,1637402066.901
2153138.0,1637402066.941
2149568.0,1637402066.981
2146912.0,1637402067.021
2144449.0,1637402067.061
2141600.0,1637402067.101
2138829.0,1637402067.141
2136064.0,1637402067.181
2135289.0,1637402067.221
2134745.0,1637402067.261
2135534.0,1637402067.301
2139299.0,1637402067.341
2143048.0,1637402067.381
2149651.0,1637402067.421
2163970.0,1637402067.461
2177435.0,1637402067.501
2188237.0,1637402067.541
2198172.0,1637402067.581
2209826.0,1637402067.621
2218280.0,1637402067.661
2223363.0,1637402067.701
2224672.0,1637402067.741
2227951.0,1637402067.781
2234717.0,1637402067.821
2236397.0,1637402067.861
2238129.0,1637402067.901
2239150.0,1637402067.941
2237090.0,1637402067.981
2232291.0,1637402068.021
2227001.0,1637402068.061
2221191.0,1637402068.101
2215830.0,1637402068.141
2210969.0,1637402068.181
2207690.0,1637402068.221
2206321.0,1637402068.261
2206570.0,1637402068.301
2207505.0,1637402068.341
2208071.0,1637402068.381
2208259.0,1637402068.421
2208118.0,1637402068.461
2207895.0,1637402068.541
2207874.0,1637402068.501
2207131.0,1637402068.581
2203376.0,1637402068.621
2199002.0,1637402068.661
2194702.0,1637402068.701
2190607.0,1637402068.741
2186698.0,1637402068.781
2182923.0,1637402068.821
2179146.0,1637402068.861
2175573.0,1637402068.901
2171575.0,1637402068.941
2167776.0,1637402068.981
2164795.0,1637402069.021
2162488.0,1637402069.061
2160365.0,1637402069.101
2158365.0,1637402069.141
2157280.0,1637402069.181
2156620.0,1637402069.221
2156157.0,1637402069.261
2155794.0,1637402069.301
2155709.0,1637402069.341
2155886.0,1637402069.381
2156696.0,1637402069.421
2156626.0,1637402069.461
2156626.0,1637402069.501
2154637.0,1637402069.541
2153729.0,1637402069.581
2155121.0,1637402069.621
