bvp,time
16.92,1660301735.78125
22.55,1660301735.796875
28.2,1660301735.8125
33.26,1660301735.828125
37.36,1660301735.84375
40.43,1660301735.859375
42.75,1660301735.875
44.77,1660301735.890625
46.86,1660301735.90625
49.29,1660301735.921875
52.11,1660301735.9375
55.31,1660301735.953125
58.9,1660301735.96875
62.99,1660301735.984375
67.74,1660301736.0
73.32,1660301736.015625
79.75,1660301736.03125
86.9,1660301736.046875
94.38,1660301736.0625
101.75,1660301736.078125
108.66,1660301736.09375
115.02,1660301736.109375
121.09,1660301736.125
127.35,1660301736.140625
134.3,1660301736.15625
142.15,1660301736.171875
150.32,1660301736.1875
157.99,1660301736.203125
164.47,1660301736.21875
169.47,1660301736.234375
172.88,1660301736.25
174.55,1660301736.265625
174.25,1660301736.28125
171.91,1660301736.296875
167.63,1660301736.3125
161.51,1660301736.328125
153.87,1660301736.34375
145.33,1660301736.359375
136.45,1660301736.375
127.47,1660301736.390625
118.3,1660301736.40625
108.81,1660301736.421875
99.12,1660301736.4375
89.61,1660301736.453125
79.8,1660301736.46875
69.2,1660301736.484375
57.87,1660301736.5
46.47,1660301736.515625
35.89,1660301736.53125
26.75,1660301736.546875
19.39,1660301736.5625
13.77,1660301736.578125
9.43,1660301736.59375
2.99,1660301736.609375
-8.41,1660301736.625
-25.24,1660301736.640625
-45.35,1660301736.65625
-65.77,1660301736.671875
-84.28,1660301736.6875
-99.75,1660301736.703125
-111.99,1660301736.71875
-121.56,1660301736.734375
-134.68,1660301736.75
-156.3,1660301736.765625
-186.45,1660301736.78125
-220.01,1660301736.796875
-250.59,1660301736.8125
-273.7,1660301736.828125
-287.39,1660301736.84375
-291.67,1660301736.859375
-288.0,1660301736.875
-287.02,1660301736.890625
-297.5,1660301736.90625
-320.48,1660301736.921875
-349.22,1660301736.9375
-375.21,1660301736.953125
-393.48,1660301736.96875
-403.19,1660301736.984375
-406.42,1660301737.0
-406.92,1660301737.015625
-419.7,1660301737.03125
-456.83,1660301737.046875
-520.31,1660301737.0625
-602.86,1660301737.078125
-695.28,1660301737.09375
-792.13,1660301737.109375
-890.31,1660301737.125
-985.96,1660301737.140625
-1005.15,1660301737.15625
-902.09,1660301737.171875
-689.23,1660301737.1875
-430.32,1660301737.203125
-189.72,1660301737.21875
-0.4,1660301737.234375
132.34,1660301737.25
218.25,1660301737.265625
272.58,1660301737.28125
309.76,1660301737.296875
329.01,1660301737.3125
326.01,1660301737.328125
303.86,1660301737.34375
272.52,1660301737.359375
243.48,1660301737.375
223.89,1660301737.390625
216.15,1660301737.40625
219.5,1660301737.421875
231.56,1660301737.4375
241.3,1660301737.453125
240.24,1660301737.46875
228.85,1660301737.484375
212.25,1660301737.5
198.58,1660301737.515625
192.88,1660301737.53125
196.46,1660301737.546875
208.28,1660301737.5625
226.19,1660301737.578125
242.64,1660301737.59375
251.89,1660301737.609375
253.78,1660301737.625
253.18,1660301737.640625
256.39,1660301737.65625
266.6,1660301737.671875
283.12,1660301737.6875
302.2,1660301737.703125
318.72,1660301737.71875
325.51,1660301737.734375
318.1,1660301737.75
297.07,1660301737.765625
267.21,1660301737.78125
234.88,1660301737.796875
204.67,1660301737.8125
178.64,1660301737.828125
156.95,1660301737.84375
138.89,1660301737.859375
122.86,1660301737.875
107.8,1660301737.890625
93.57,1660301737.90625
80.45,1660301737.921875
68.65,1660301737.9375
57.79,1660301737.953125
47.29,1660301737.96875
36.9,1660301737.984375
26.79,1660301738.0
17.41,1660301738.015625
9.12,1660301738.03125
2.03,1660301738.046875
-4.05,1660301738.0625
-9.41,1660301738.078125
-14.4,1660301738.09375
-19.37,1660301738.109375
-24.59,1660301738.125
-30.11,1660301738.140625
-35.72,1660301738.15625
-40.93,1660301738.171875
-45.08,1660301738.1875
-47.62,1660301738.203125
-48.24,1660301738.21875
-47.04,1660301738.234375
-44.52,1660301738.25
-41.32,1660301738.265625
-38.02,1660301738.28125
-35.0,1660301738.296875
-32.42,1660301738.3125
-30.31,1660301738.328125
-28.67,1660301738.34375
-27.47,1660301738.359375
-26.63,1660301738.375
-26.01,1660301738.390625
-25.45,1660301738.40625
-24.79,1660301738.421875
-23.94,1660301738.4375
-22.84,1660301738.453125
-21.48,1660301738.46875
-19.86,1660301738.484375
-18.01,1660301738.5
-16.02,1660301738.515625
-14.01,1660301738.53125
-12.09,1660301738.546875
-10.37,1660301738.5625
-8.83,1660301738.578125
-7.37,1660301738.59375
-5.9,1660301738.609375
-4.36,1660301738.625
-2.81,1660301738.640625
-1.37,1660301738.65625
-0.21,1660301738.671875
0.62,1660301738.6875
1.12,1660301738.703125
1.43,1660301738.71875
1.67,1660301738.734375
1.96,1660301738.75
2.28,1660301738.765625
2.55,1660301738.78125
2.62,1660301738.796875
2.4,1660301738.8125
1.87,1660301738.828125
1.12,1660301738.84375
0.29,1660301738.859375
-0.54,1660301738.875
-1.39,1660301738.890625
-2.37,1660301738.90625
-3.68,1660301738.921875
-5.54,1660301738.9375
-8.07,1660301738.953125
-11.22,1660301738.96875
-14.76,1660301738.984375
-18.26,1660301739.0
-21.16,1660301739.015625
-22.94,1660301739.03125
-23.27,1660301739.046875
-22.12,1660301739.0625
-19.8,1660301739.078125
-16.84,1660301739.09375
-13.81,1660301739.109375
-11.13,1660301739.125
-8.99,1660301739.140625
-7.4,1660301739.15625
-6.26,1660301739.171875
-5.51,1660301739.1875
-5.12,1660301739.203125
-5.06,1660301739.21875
-5.25,1660301739.234375
-5.54,1660301739.25
-5.77,1660301739.265625
-5.79,1660301739.28125
-5.54,1660301739.296875
-4.97,1660301739.3125
-4.08,1660301739.328125
-2.86,1660301739.34375
-1.33,1660301739.359375
0.4,1660301739.375
2.13,1660301739.390625
3.59,1660301739.40625
4.55,1660301739.421875
4.93,1660301739.4375
4.84,1660301739.453125
4.54,1660301739.46875
4.3,1660301739.484375
4.3,1660301739.5
4.5,1660301739.515625
4.75,1660301739.53125
4.78,1660301739.546875
4.48,1660301739.5625
3.81,1660301739.578125
2.91,1660301739.59375
2.01,1660301739.609375
1.25,1660301739.625
0.68,1660301739.640625
0.22,1660301739.65625
-0.36,1660301739.671875
-1.28,1660301739.6875
-2.75,1660301739.703125
-4.89,1660301739.71875
-7.63,1660301739.734375
-10.73,1660301739.75
-13.7,1660301739.765625
-15.9,1660301739.78125
-16.72,1660301739.796875
-15.75,1660301739.8125
-12.96,1660301739.828125
-8.78,1660301739.84375
-3.93,1660301739.859375
0.79,1660301739.875
4.75,1660301739.890625
7.63,1660301739.90625
9.43,1660301739.921875
10.34,1660301739.9375
10.61,1660301739.953125
10.5,1660301739.96875
10.24,1660301739.984375
10.02,1660301740.0
10.02,1660301740.015625
10.37,1660301740.03125
11.08,1660301740.046875
12.14,1660301740.0625
13.42,1660301740.078125
14.79,1660301740.09375
16.09,1660301740.109375
17.16,1660301740.125
17.91,1660301740.140625
18.29,1660301740.15625
18.32,1660301740.171875
18.09,1660301740.1875
17.75,1660301740.203125
17.39,1660301740.21875
17.08,1660301740.234375
16.74,1660301740.25
16.19,1660301740.265625
15.27,1660301740.28125
13.9,1660301740.296875
12.11,1660301740.3125
10.09,1660301740.328125
8.03,1660301740.34375
6.06,1660301740.359375
4.17,1660301740.375
2.26,1660301740.390625
0.17,1660301740.40625
-2.14,1660301740.421875
-4.7,1660301740.4375
-7.51,1660301740.453125
-10.61,1660301740.46875
-14.07,1660301740.484375
-17.89,1660301740.5
-21.84,1660301740.515625
-25.46,1660301740.53125
-28.09,1660301740.546875
-29.08,1660301740.5625
-28.02,1660301740.578125
-24.89,1660301740.59375
-20.11,1660301740.609375
-14.39,1660301740.625
-8.5,1660301740.640625
-3.05,1660301740.65625
1.62,1660301740.671875
5.46,1660301740.6875
8.62,1660301740.703125
11.31,1660301740.71875
13.69,1660301740.734375
15.78,1660301740.75
17.52,1660301740.765625
18.81,1660301740.78125
19.65,1660301740.796875
20.09,1660301740.8125
20.3,1660301740.828125
20.46,1660301740.84375
20.69,1660301740.859375
21.01,1660301740.875
21.37,1660301740.890625
21.65,1660301740.90625
21.76,1660301740.921875
21.62,1660301740.9375
21.22,1660301740.953125
20.57,1660301740.96875
19.69,1660301740.984375
18.57,1660301741.0
17.2,1660301741.015625
15.49,1660301741.03125
13.38,1660301741.046875
10.86,1660301741.0625
7.98,1660301741.078125
4.84,1660301741.09375
1.68,1660301741.109375
-1.26,1660301741.125
-3.72,1660301741.140625
-5.53,1660301741.15625
-6.65,1660301741.171875
-7.15,1660301741.1875
-7.25,1660301741.203125
-7.22,1660301741.21875
-7.33,1660301741.234375
-7.81,1660301741.25
-8.88,1660301741.265625
-10.64,1660301741.28125
-13.02,1660301741.296875
-15.76,1660301741.3125
-18.3,1660301741.328125
-20.0,1660301741.34375
-20.28,1660301741.359375
-18.82,1660301741.375
-15.77,1660301741.390625
-11.66,1660301741.40625
-7.24,1660301741.421875
-3.17,1660301741.4375
0.14,1660301741.453125
2.58,1660301741.46875
4.29,1660301741.484375
5.45,1660301741.5
6.22,1660301741.515625
6.73,1660301741.53125
7.11,1660301741.546875
7.49,1660301741.5625
8.02,1660301741.578125
8.79,1660301741.59375
9.87,1660301741.609375
11.21,1660301741.625
12.71,1660301741.640625
14.17,1660301741.65625
15.4,1660301741.671875
16.17,1660301741.6875
16.34,1660301741.703125
15.9,1660301741.71875
14.97,1660301741.734375
13.79,1660301741.75
12.6,1660301741.765625
11.53,1660301741.78125
10.53,1660301741.796875
9.43,1660301741.8125
8.05,1660301741.828125
6.35,1660301741.84375
4.48,1660301741.859375
2.7,1660301741.875
1.27,1660301741.890625
0.34,1660301741.90625
-0.18,1660301741.921875
-0.57,1660301741.9375
-1.19,1660301741.953125
-2.38,1660301741.96875
-4.29,1660301741.984375
-6.84,1660301742.0
-9.7,1660301742.015625
-12.41,1660301742.03125
-14.42,1660301742.046875
-15.27,1660301742.0625
-14.72,1660301742.078125
-12.84,1660301742.09375
-9.98,1660301742.109375
-6.63,1660301742.125
-3.33,1660301742.140625
-0.43,1660301742.15625
1.91,1660301742.171875
3.72,1660301742.1875
5.17,1660301742.203125
6.38,1660301742.21875
7.42,1660301742.234375
8.25,1660301742.25
8.79,1660301742.265625
9.02,1660301742.28125
9.04,1660301742.296875
9.06,1660301742.3125
9.27,1660301742.328125
9.81,1660301742.34375
10.63,1660301742.359375
11.51,1660301742.375
12.16,1660301742.390625
12.31,1660301742.40625
11.89,1660301742.421875
11.0,1660301742.4375
9.95,1660301742.453125
9.05,1660301742.46875
8.44,1660301742.484375
8.1,1660301742.5
7.75,1660301742.515625
7.05,1660301742.53125
5.79,1660301742.546875
3.93,1660301742.5625
1.65,1660301742.578125
-0.77,1660301742.59375
-3.01,1660301742.609375
-4.85,1660301742.625
-6.17,1660301742.640625
-6.94,1660301742.65625
-7.2,1660301742.671875
-7.05,1660301742.6875
-6.66,1660301742.703125
-6.31,1660301742.71875
-6.27,1660301742.734375
-6.8,1660301742.75
-7.93,1660301742.765625
-9.45,1660301742.78125
-10.93,1660301742.796875
-11.81,1660301742.8125
-11.66,1660301742.828125
-10.31,1660301742.84375
-7.92,1660301742.859375
-4.9,1660301742.875
-1.73,1660301742.890625
1.14,1660301742.90625
3.51,1660301742.921875
5.31,1660301742.9375
6.62,1660301742.953125
7.52,1660301742.96875
8.11,1660301742.984375
8.45,1660301743.0
8.61,1660301743.015625
8.66,1660301743.03125
8.69,1660301743.046875
8.78,1660301743.0625
9.01,1660301743.078125
9.39,1660301743.09375
9.91,1660301743.109375
10.5,1660301743.125
11.1,1660301743.140625
11.63,1660301743.15625
12.06,1660301743.171875
12.37,1660301743.1875
12.53,1660301743.203125
12.51,1660301743.21875
12.21,1660301743.234375
11.58,1660301743.25
10.57,1660301743.265625
9.15,1660301743.28125
7.36,1660301743.296875
5.3,1660301743.3125
3.1,1660301743.328125
0.91,1660301743.34375
-1.14,1660301743.359375
-3.02,1660301743.375
-4.8,1660301743.390625
-6.66,1660301743.40625
-8.82,1660301743.421875
-11.41,1660301743.4375
-14.36,1660301743.453125
-17.48,1660301743.46875
-20.5,1660301743.484375
-23.26,1660301743.5
-25.78,1660301743.515625
-28.19,1660301743.53125
-30.57,1660301743.546875
-32.78,1660301743.5625
-34.42,1660301743.578125
-34.98,1660301743.59375
-34.07,1660301743.609375
-31.57,1660301743.625
-27.8,1660301743.640625
-23.3,1660301743.65625
-18.67,1660301743.671875
-14.32,1660301743.6875
-10.44,1660301743.703125
-7.05,1660301743.71875
-4.16,1660301743.734375
-1.87,1660301743.75
-0.34,1660301743.765625
0.38,1660301743.78125
0.44,1660301743.796875
0.23,1660301743.8125
0.25,1660301743.828125
0.9,1660301743.84375
2.37,1660301743.859375
4.56,1660301743.875
7.15,1660301743.890625
9.76,1660301743.90625
12.04,1660301743.921875
13.76,1660301743.9375
14.84,1660301743.953125
15.3,1660301743.96875
15.26,1660301743.984375
14.86,1660301744.0
14.23,1660301744.015625
13.5,1660301744.03125
12.7,1660301744.046875
11.83,1660301744.0625
10.84,1660301744.078125
9.73,1660301744.09375
8.51,1660301744.109375
7.24,1660301744.125
5.99,1660301744.140625
4.78,1660301744.15625
3.56,1660301744.171875
2.27,1660301744.1875
0.82,1660301744.203125
-0.82,1660301744.21875
-2.61,1660301744.234375
-4.53,1660301744.25
-6.49,1660301744.265625
-8.49,1660301744.28125
-10.46,1660301744.296875
-12.3,1660301744.3125
-13.83,1660301744.328125
-14.76,1660301744.34375
-14.82,1660301744.359375
-13.8,1660301744.375
-11.75,1660301744.390625
-8.91,1660301744.40625
-5.74,1660301744.421875
-2.72,1660301744.4375
-0.22,1660301744.453125
1.57,1660301744.46875
2.71,1660301744.484375
3.42,1660301744.5
3.93,1660301744.515625
4.42,1660301744.53125
4.96,1660301744.546875
5.53,1660301744.5625
6.07,1660301744.578125
6.57,1660301744.59375
7.09,1660301744.609375
7.74,1660301744.625
8.62,1660301744.640625
9.7,1660301744.65625
10.84,1660301744.671875
11.81,1660301744.6875
12.35,1660301744.703125
12.32,1660301744.71875
11.76,1660301744.734375
10.83,1660301744.75
9.73,1660301744.765625
8.57,1660301744.78125
7.3,1660301744.796875
5.77,1660301744.8125
3.83,1660301744.828125
1.52,1660301744.84375
-0.95,1660301744.859375
-3.24,1660301744.875
-5.11,1660301744.890625
-6.46,1660301744.90625
-7.43,1660301744.921875
-8.28,1660301744.9375
-9.22,1660301744.953125
-10.3,1660301744.96875
-11.38,1660301744.984375
-12.27,1660301745.0
-12.85,1660301745.015625
-13.23,1660301745.03125
-13.69,1660301745.046875
-14.58,1660301745.0625
-16.16,1660301745.078125
-18.48,1660301745.09375
-21.35,1660301745.109375
-24.32,1660301745.125
-26.81,1660301745.140625
-28.23,1660301745.15625
-28.12,1660301745.171875
-26.28,1660301745.1875
-22.89,1660301745.203125
-18.48,1660301745.21875
-13.84,1660301745.234375
-9.66,1660301745.25
-6.43,1660301745.265625
-4.2,1660301745.28125
-2.69,1660301745.296875
-1.52,1660301745.3125
-0.33,1660301745.328125
1.0,1660301745.34375
2.48,1660301745.359375
4.0,1660301745.375
5.49,1660301745.390625
6.9,1660301745.40625
8.22,1660301745.421875
9.47,1660301745.4375
10.63,1660301745.453125
11.71,1660301745.46875
12.68,1660301745.484375
13.54,1660301745.5
14.25,1660301745.515625
14.78,1660301745.53125
15.12,1660301745.546875
15.27,1660301745.5625
15.29,1660301745.578125
15.16,1660301745.59375
14.85,1660301745.609375
14.22,1660301745.625
13.18,1660301745.640625
11.71,1660301745.65625
9.95,1660301745.671875
8.15,1660301745.6875
6.57,1660301745.703125
5.4,1660301745.71875
4.64,1660301745.734375
4.22,1660301745.75
3.98,1660301745.765625
3.85,1660301745.78125
3.87,1660301745.796875
4.05,1660301745.8125
4.4,1660301745.828125
4.72,1660301745.84375
4.7,1660301745.859375
3.99,1660301745.875
2.38,1660301745.890625
-0.1,1660301745.90625
-3.14,1660301745.921875
-6.29,1660301745.9375
-9.07,1660301745.953125
-11.15,1660301745.96875
-12.33,1660301745.984375
-12.54,1660301746.0
-11.74,1660301746.015625
-9.95,1660301746.03125
-7.32,1660301746.046875
-4.21,1660301746.0625
-1.15,1660301746.078125
1.29,1660301746.09375
2.71,1660301746.109375
3.1,1660301746.125
2.7,1660301746.140625
1.96,1660301746.15625
1.19,1660301746.171875
0.48,1660301746.1875
-0.26,1660301746.203125
-1.14,1660301746.21875
-2.16,1660301746.234375
-3.16,1660301746.25
-3.92,1660301746.265625
-4.31,1660301746.28125
-4.35,1660301746.296875
-4.21,1660301746.3125
-4.02,1660301746.328125
-3.93,1660301746.34375
-3.98,1660301746.359375
-4.18,1660301746.375
-4.6,1660301746.390625
-5.3,1660301746.40625
-6.35,1660301746.421875
-7.76,1660301746.4375
-9.46,1660301746.453125
-11.37,1660301746.46875
-13.36,1660301746.484375
-15.38,1660301746.5
-17.4,1660301746.515625
-19.5,1660301746.53125
-21.8,1660301746.546875
-24.45,1660301746.5625
-27.45,1660301746.578125
-30.54,1660301746.59375
-33.16,1660301746.609375
-34.64,1660301746.625
-34.53,1660301746.640625
-32.9,1660301746.65625
-30.39,1660301746.671875
-27.96,1660301746.6875
-26.42,1660301746.703125
-26.04,1660301746.71875
-26.4,1660301746.734375
-26.64,1660301746.75
-25.89,1660301746.765625
-23.74,1660301746.78125
-20.27,1660301746.796875
-16.0,1660301746.8125
-11.47,1660301746.828125
-6.97,1660301746.84375
-2.46,1660301746.859375
2.29,1660301746.875
7.52,1660301746.890625
13.24,1660301746.90625
19.19,1660301746.921875
24.96,1660301746.9375
30.17,1660301746.953125
34.67,1660301746.96875
38.53,1660301746.984375
41.93,1660301747.0
45.01,1660301747.015625
47.7,1660301747.03125
49.77,1660301747.046875
50.95,1660301747.0625
51.08,1660301747.078125
50.26,1660301747.09375
48.74,1660301747.109375
46.86,1660301747.125
44.88,1660301747.140625
42.92,1660301747.15625
40.89,1660301747.171875
38.64,1660301747.1875
35.99,1660301747.203125
32.81,1660301747.21875
29.08,1660301747.234375
24.98,1660301747.25
20.77,1660301747.265625
16.74,1660301747.28125
13.12,1660301747.296875
9.94,1660301747.3125
7.06,1660301747.328125
4.29,1660301747.34375
1.47,1660301747.359375
-1.39,1660301747.375
-4.23,1660301747.390625
-6.96,1660301747.40625
-9.59,1660301747.421875
-12.29,1660301747.4375
-15.28,1660301747.453125
-18.7,1660301747.46875
-22.49,1660301747.484375
-26.39,1660301747.5
-29.94,1660301747.515625
-32.69,1660301747.53125
-34.22,1660301747.546875
-34.27,1660301747.5625
-32.78,1660301747.578125
-29.88,1660301747.59375
-25.92,1660301747.609375
-21.38,1660301747.625
-16.82,1660301747.640625
-12.68,1660301747.65625
-9.21,1660301747.671875
-6.42,1660301747.6875
-4.15,1660301747.703125
-2.14,1660301747.71875
-0.27,1660301747.734375
1.45,1660301747.75
2.95,1660301747.765625
4.1,1660301747.78125
4.88,1660301747.796875
5.37,1660301747.8125
5.72,1660301747.828125
6.07,1660301747.84375
6.46,1660301747.859375
6.81,1660301747.875
7.03,1660301747.890625
7.01,1660301747.90625
6.71,1660301747.921875
6.18,1660301747.9375
5.45,1660301747.953125
4.61,1660301747.96875
3.68,1660301747.984375
2.71,1660301748.0
1.68,1660301748.015625
0.6,1660301748.03125
-0.58,1660301748.046875
-1.92,1660301748.0625
-3.43,1660301748.078125
-5.08,1660301748.09375
-6.8,1660301748.109375
-8.46,1660301748.125
-9.97,1660301748.140625
-11.3,1660301748.15625
-12.51,1660301748.171875
-13.69,1660301748.1875
-14.94,1660301748.203125
-16.27,1660301748.21875
-17.65,1660301748.234375
-19.09,1660301748.25
-20.65,1660301748.265625
-22.45,1660301748.28125
-24.56,1660301748.296875
-26.84,1660301748.3125
-28.89,1660301748.328125
-30.18,1660301748.34375
-30.15,1660301748.359375
-28.58,1660301748.375
-25.55,1660301748.390625
-21.55,1660301748.40625
-17.19,1660301748.421875
-13.0,1660301748.4375
-9.24,1660301748.453125
-5.97,1660301748.46875
-3.1,1660301748.484375
-0.56,1660301748.5
1.65,1660301748.515625
3.57,1660301748.53125
5.29,1660301748.546875
7.04,1660301748.5625
9.09,1660301748.578125
11.65,1660301748.59375
14.81,1660301748.609375
18.45,1660301748.625
22.31,1660301748.640625
26.06,1660301748.65625
29.36,1660301748.671875
31.97,1660301748.6875
33.79,1660301748.703125
34.83,1660301748.71875
35.24,1660301748.734375
35.18,1660301748.75
34.84,1660301748.765625
34.32,1660301748.78125
33.66,1660301748.796875
32.82,1660301748.8125
31.74,1660301748.828125
30.4,1660301748.84375
28.76,1660301748.859375
26.86,1660301748.875
24.74,1660301748.890625
22.46,1660301748.90625
20.1,1660301748.921875
17.71,1660301748.9375
15.34,1660301748.953125
12.96,1660301748.96875
10.5,1660301748.984375
7.82,1660301749.0
4.85,1660301749.015625
1.52,1660301749.03125
-2.08,1660301749.046875
-5.8,1660301749.0625
-9.31,1660301749.078125
-12.15,1660301749.09375
-13.84,1660301749.109375
-13.97,1660301749.125
-12.37,1660301749.140625
-9.24,1660301749.15625
-5.07,1660301749.171875
-0.59,1660301749.1875
3.51,1660301749.203125
6.74,1660301749.21875
8.93,1660301749.234375
10.13,1660301749.25
10.55,1660301749.265625
10.36,1660301749.28125
9.72,1660301749.296875
8.75,1660301749.3125
7.61,1660301749.328125
6.52,1660301749.34375
5.69,1660301749.359375
5.35,1660301749.375
5.56,1660301749.390625
6.19,1660301749.40625
6.97,1660301749.421875
7.55,1660301749.4375
7.64,1660301749.453125
7.13,1660301749.46875
6.16,1660301749.484375
4.98,1660301749.5
3.85,1660301749.515625
2.83,1660301749.53125
1.84,1660301749.546875
0.66,1660301749.5625
-0.88,1660301749.578125
-2.77,1660301749.59375
-4.82,1660301749.609375
-6.77,1660301749.625
-8.4,1660301749.640625
-9.7,1660301749.65625
-10.78,1660301749.671875
-11.82,1660301749.6875
-13.0,1660301749.703125
-14.41,1660301749.71875
-16.08,1660301749.734375
-18.08,1660301749.75
-20.45,1660301749.765625
-23.13,1660301749.78125
-25.86,1660301749.796875
-28.16,1660301749.8125
-29.45,1660301749.828125
-29.24,1660301749.84375
-27.37,1660301749.859375
-24.09,1660301749.875
-19.97,1660301749.890625
-15.65,1660301749.90625
-11.65,1660301749.921875
-8.25,1660301749.9375
-5.54,1660301749.953125
-3.56,1660301749.96875
-2.3,1660301749.984375
-1.71,1660301750.0
-1.64,1660301750.015625
-1.79,1660301750.03125
-1.8,1660301750.046875
-1.39,1660301750.0625
-0.46,1660301750.078125
0.84,1660301750.09375
2.2,1660301750.109375
3.34,1660301750.125
4.07,1660301750.140625
4.37,1660301750.15625
4.29,1660301750.171875
3.95,1660301750.1875
3.42,1660301750.203125
2.74,1660301750.21875
1.99,1660301750.234375
1.24,1660301750.25
0.55,1660301750.265625
-0.07,1660301750.28125
-0.69,1660301750.296875
-1.41,1660301750.3125
-2.35,1660301750.328125
-3.55,1660301750.34375
-4.95,1660301750.359375
-6.45,1660301750.375
-7.95,1660301750.390625
-9.39,1660301750.40625
-10.83,1660301750.421875
-12.38,1660301750.4375
-14.14,1660301750.453125
-16.19,1660301750.46875
-18.53,1660301750.484375
-20.95,1660301750.5
-23.16,1660301750.515625
-24.73,1660301750.53125
-25.24,1660301750.546875
-24.45,1660301750.5625
-22.31,1660301750.578125
-19.07,1660301750.59375
-15.13,1660301750.609375
-10.99,1660301750.625
-7.06,1660301750.640625
-3.65,1660301750.65625
-0.88,1660301750.671875
1.2,1660301750.6875
2.65,1660301750.703125
3.55,1660301750.71875
4.0,1660301750.734375
4.12,1660301750.75
4.07,1660301750.765625
3.99,1660301750.78125
3.96,1660301750.796875
4.03,1660301750.8125
4.16,1660301750.828125
4.33,1660301750.84375
4.54,1660301750.859375
4.83,1660301750.875
5.24,1660301750.890625
5.76,1660301750.90625
6.33,1660301750.921875
6.74,1660301750.9375
6.78,1660301750.953125
6.27,1660301750.96875
5.12,1660301750.984375
3.31,1660301751.0
0.89,1660301751.015625
-2.0,1660301751.03125
-5.18,1660301751.046875
-8.4,1660301751.0625
-11.39,1660301751.078125
-14.0,1660301751.09375
-16.26,1660301751.109375
-18.47,1660301751.125
-21.04,1660301751.140625
-24.37,1660301751.15625
-28.57,1660301751.171875
-33.43,1660301751.1875
-38.39,1660301751.203125
-42.67,1660301751.21875
-45.5,1660301751.234375
-46.27,1660301751.25
-44.69,1660301751.265625
-40.9,1660301751.28125
-35.43,1660301751.296875
-29.03,1660301751.3125
-22.49,1660301751.328125
-16.4,1660301751.34375
-11.02,1660301751.359375
-6.37,1660301751.375
-2.35,1660301751.390625
1.07,1660301751.40625
3.83,1660301751.421875
5.83,1660301751.4375
7.08,1660301751.453125
7.77,1660301751.46875
8.28,1660301751.484375
9.0,1660301751.5
10.22,1660301751.515625
12.08,1660301751.53125
14.53,1660301751.546875
17.41,1660301751.5625
20.48,1660301751.578125
23.45,1660301751.59375
26.01,1660301751.609375
27.86,1660301751.625
28.83,1660301751.640625
28.92,1660301751.65625
28.32,1660301751.671875
27.33,1660301751.6875
26.3,1660301751.703125
25.45,1660301751.71875
24.89,1660301751.734375
24.54,1660301751.75
24.26,1660301751.765625
23.83,1660301751.78125
23.04,1660301751.796875
21.8,1660301751.8125
20.07,1660301751.828125
17.88,1660301751.84375
15.26,1660301751.859375
12.19,1660301751.875
8.54,1660301751.890625
4.21,1660301751.90625
-0.78,1660301751.921875
-6.12,1660301751.9375
-11.22,1660301751.953125
-15.3,1660301751.96875
-17.65,1660301751.984375
-17.81,1660301752.0
-15.8,1660301752.015625
-12.04,1660301752.03125
-7.16,1660301752.046875
-1.83,1660301752.0625
3.49,1660301752.078125
8.44,1660301752.09375
12.83,1660301752.109375
16.48,1660301752.125
19.19,1660301752.140625
20.83,1660301752.15625
21.38,1660301752.171875
20.97,1660301752.1875
19.89,1660301752.203125
18.5,1660301752.21875
17.07,1660301752.234375
15.79,1660301752.25
14.75,1660301752.265625
14.02,1660301752.28125
13.64,1660301752.296875
13.65,1660301752.3125
14.02,1660301752.328125
14.63,1660301752.34375
15.31,1660301752.359375
15.91,1660301752.375
16.38,1660301752.390625
16.74,1660301752.40625
17.09,1660301752.421875
17.43,1660301752.4375
17.69,1660301752.453125
17.66,1660301752.46875
17.18,1660301752.484375
16.17,1660301752.5
14.65,1660301752.515625
12.68,1660301752.53125
10.32,1660301752.546875
7.59,1660301752.5625
4.54,1660301752.578125
1.32,1660301752.59375
-1.73,1660301752.609375
-4.26,1660301752.625
-6.01,1660301752.640625
-7.01,1660301752.65625
-7.62,1660301752.671875
-8.32,1660301752.6875
-9.55,1660301752.703125
-11.39,1660301752.71875
-13.53,1660301752.734375
-15.39,1660301752.75
-16.31,1660301752.765625
-15.88,1660301752.78125
-13.98,1660301752.796875
-10.89,1660301752.8125
-7.13,1660301752.828125
-3.36,1660301752.84375
-0.21,1660301752.859375
1.88,1660301752.875
2.74,1660301752.890625
2.57,1660301752.90625
1.83,1660301752.921875
1.1,1660301752.9375
0.81,1660301752.953125
1.15,1660301752.96875
1.99,1660301752.984375
3.01,1660301753.0
4.0,1660301753.015625
4.91,1660301753.03125
5.9,1660301753.046875
7.2,1660301753.0625
8.92,1660301753.078125
10.93,1660301753.09375
12.97,1660301753.109375
14.73,1660301753.125
15.98,1660301753.140625
16.67,1660301753.15625
16.82,1660301753.171875
16.5,1660301753.1875
15.69,1660301753.203125
14.4,1660301753.21875
12.64,1660301753.234375
10.56,1660301753.25
8.43,1660301753.265625
6.55,1660301753.28125
5.13,1660301753.296875
4.26,1660301753.3125
3.85,1660301753.328125
3.75,1660301753.34375
3.73,1660301753.359375
3.63,1660301753.375
3.36,1660301753.390625
2.87,1660301753.40625
2.14,1660301753.421875
1.22,1660301753.4375
0.09,1660301753.453125
-1.24,1660301753.46875
-2.85,1660301753.484375
-4.81,1660301753.5
-7.21,1660301753.515625
-10.05,1660301753.53125
-13.16,1660301753.546875
-16.27,1660301753.5625
-18.94,1660301753.578125
-20.76,1660301753.59375
-21.41,1660301753.609375
-20.79,1660301753.625
-19.0,1660301753.640625
-16.35,1660301753.65625
-13.24,1660301753.671875
-10.04,1660301753.6875
-7.08,1660301753.703125
-4.56,1660301753.71875
-2.54,1660301753.734375
-0.99,1660301753.75
0.19,1660301753.765625
1.11,1660301753.78125
1.94,1660301753.796875
2.75,1660301753.8125
3.6,1660301753.828125
4.47,1660301753.84375
5.36,1660301753.859375
6.26,1660301753.875
7.21,1660301753.890625
8.26,1660301753.90625
9.42,1660301753.921875
10.58,1660301753.9375
11.55,1660301753.953125
12.1,1660301753.96875
12.12,1660301753.984375
11.65,1660301754.0
10.95,1660301754.015625
10.28,1660301754.03125
9.82,1660301754.046875
9.52,1660301754.0625
9.23,1660301754.078125
8.77,1660301754.09375
8.1,1660301754.109375
7.3,1660301754.125
6.54,1660301754.140625
5.88,1660301754.15625
5.25,1660301754.171875
4.48,1660301754.1875
3.44,1660301754.203125
2.15,1660301754.21875
0.75,1660301754.234375
-0.52,1660301754.25
-1.53,1660301754.265625
-2.29,1660301754.28125
-2.97,1660301754.296875
-3.8,1660301754.3125
-4.93,1660301754.328125
-6.46,1660301754.34375
-8.33,1660301754.359375
-10.44,1660301754.375
-12.58,1660301754.390625
-14.5,1660301754.40625
-15.9,1660301754.421875
-16.46,1660301754.4375
-15.96,1660301754.453125
-14.3,1660301754.46875
-11.63,1660301754.484375
-8.26,1660301754.5
-4.64,1660301754.515625
-1.21,1660301754.53125
1.72,1660301754.546875
4.03,1660301754.5625
5.78,1660301754.578125
7.09,1660301754.59375
8.06,1660301754.609375
8.74,1660301754.625
9.11,1660301754.640625
9.2,1660301754.65625
9.13,1660301754.671875
9.13,1660301754.6875
9.46,1660301754.703125
10.25,1660301754.71875
11.38,1660301754.734375
12.6,1660301754.75
13.59,1660301754.765625
14.19,1660301754.78125
14.42,1660301754.796875
14.47,1660301754.8125
14.56,1660301754.828125
14.74,1660301754.84375
14.89,1660301754.859375
14.77,1660301754.875
14.18,1660301754.890625
13.1,1660301754.90625
11.71,1660301754.921875
10.28,1660301754.9375
9.05,1660301754.953125
8.11,1660301754.96875
7.4,1660301754.984375
6.76,1660301755.0
6.0,1660301755.015625
5.01,1660301755.03125
3.74,1660301755.046875
2.22,1660301755.0625
0.44,1660301755.078125
-1.62,1660301755.09375
-3.97,1660301755.109375
-6.56,1660301755.125
-9.28,1660301755.140625
-11.96,1660301755.15625
-14.46,1660301755.171875
-16.81,1660301755.1875
-19.14,1660301755.203125
-21.67,1660301755.21875
-24.49,1660301755.234375
-27.42,1660301755.25
-29.99,1660301755.265625
-31.65,1660301755.28125
-31.91,1660301755.296875
-30.61,1660301755.3125
-27.94,1660301755.328125
-24.38,1660301755.34375
-20.44,1660301755.359375
-16.56,1660301755.375
-12.93,1660301755.390625
-9.61,1660301755.40625
-6.6,1660301755.421875
-3.98,1660301755.4375
-1.88,1660301755.453125
-0.48,1660301755.46875
0.12,1660301755.484375
-0.01,1660301755.5
-0.67,1660301755.515625
-1.57,1660301755.53125
-2.44,1660301755.546875
-3.14,1660301755.5625
-3.61,1660301755.578125
-3.88,1660301755.59375
-3.96,1660301755.609375
-3.8,1660301755.625
-3.31,1660301755.640625
-2.53,1660301755.65625
-1.56,1660301755.671875
-0.65,1660301755.6875
-0.06,1660301755.703125
-0.02,1660301755.71875
-0.61,1660301755.734375
-1.77,1660301755.75
-3.33,1660301755.765625
-5.05,1660301755.78125
-6.69,1660301755.796875
-8.07,1660301755.8125
-9.1,1660301755.828125
-9.78,1660301755.84375
-10.17,1660301755.859375
-10.34,1660301755.875
-10.37,1660301755.890625
-10.28,1660301755.90625
-10.08,1660301755.921875
-9.81,1660301755.9375
-9.52,1660301755.953125
-9.25,1660301755.96875
-9.07,1660301755.984375
-8.99,1660301756.0
-9.02,1660301756.015625
-9.18,1660301756.03125
-9.52,1660301756.046875
-10.1,1660301756.0625
-11.01,1660301756.078125
-12.31,1660301756.09375
-13.99,1660301756.109375
-15.96,1660301756.125
-17.99,1660301756.140625
-19.74,1660301756.15625
-20.79,1660301756.171875
-20.79,1660301756.1875
-19.48,1660301756.203125
-16.87,1660301756.21875
-13.19,1660301756.234375
-8.91,1660301756.25
-4.69,1660301756.265625
-1.17,1660301756.28125
1.2,1660301756.296875
2.27,1660301756.3125
2.28,1660301756.328125
1.75,1660301756.34375
1.19,1660301756.359375
1.0,1660301756.375
1.28,1660301756.390625
1.93,1660301756.40625
2.81,1660301756.421875
3.86,1660301756.4375
5.12,1660301756.453125
6.66,1660301756.46875
8.48,1660301756.484375
10.39,1660301756.5
12.16,1660301756.515625
13.57,1660301756.53125
14.55,1660301756.546875
15.16,1660301756.5625
15.52,1660301756.578125
15.7,1660301756.59375
15.76,1660301756.609375
15.69,1660301756.625
15.49,1660301756.640625
15.14,1660301756.65625
14.61,1660301756.671875
13.89,1660301756.6875
12.97,1660301756.703125
11.92,1660301756.71875
10.85,1660301756.734375
9.87,1660301756.75
9.06,1660301756.765625
8.34,1660301756.78125
7.55,1660301756.796875
6.54,1660301756.8125
5.2,1660301756.828125
3.59,1660301756.84375
1.85,1660301756.859375
0.13,1660301756.875
-1.48,1660301756.890625
-2.98,1660301756.90625
-4.47,1660301756.921875
-6.04,1660301756.9375
-7.7,1660301756.953125
-9.45,1660301756.96875
-11.26,1660301756.984375
-13.06,1660301757.0
-14.8,1660301757.015625
-16.39,1660301757.03125
-17.67,1660301757.046875
-18.4,1660301757.0625
-18.28,1660301757.078125
-17.07,1660301757.09375
-14.74,1660301757.109375
-11.54,1660301757.125
-7.92,1660301757.140625
-4.46,1660301757.15625
-1.59,1660301757.171875
0.53,1660301757.1875
1.97,1660301757.203125
2.99,1660301757.21875
3.79,1660301757.234375
4.47,1660301757.25
4.98,1660301757.265625
5.3,1660301757.28125
5.47,1660301757.296875
5.58,1660301757.3125
5.74,1660301757.328125
6.0,1660301757.34375
6.33,1660301757.359375
6.65,1660301757.375
7.0,1660301757.390625
7.46,1660301757.40625
8.11,1660301757.421875
8.96,1660301757.4375
9.84,1660301757.453125
10.55,1660301757.46875
10.82,1660301757.484375
10.54,1660301757.5
9.73,1660301757.515625
8.58,1660301757.53125
7.35,1660301757.546875
6.29,1660301757.5625
5.55,1660301757.578125
5.15,1660301757.59375
4.96,1660301757.609375
4.72,1660301757.625
4.17,1660301757.640625
3.13,1660301757.65625
1.56,1660301757.671875
-0.34,1660301757.6875
-2.34,1660301757.703125
-4.16,1660301757.71875
-5.65,1660301757.734375
-6.8,1660301757.75
-7.71,1660301757.765625
-8.55,1660301757.78125
-9.5,1660301757.796875
-10.7,1660301757.8125
-12.26,1660301757.828125
-14.18,1660301757.84375
-16.3,1660301757.859375
-18.29,1660301757.875
-19.68,1660301757.890625
-20.0,1660301757.90625
-18.98,1660301757.921875
-16.67,1660301757.9375
-13.44,1660301757.953125
-9.84,1660301757.96875
-6.49,1660301757.984375
-3.81,1660301758.0
-2.02,1660301758.015625
-1.06,1660301758.03125
-0.73,1660301758.046875
-0.79,1660301758.0625
-1.03,1660301758.078125
-1.26,1660301758.09375
-1.36,1660301758.109375
-1.23,1660301758.125
-0.83,1660301758.140625
-0.09,1660301758.15625
0.9,1660301758.171875
2.06,1660301758.1875
3.23,1660301758.203125
4.28,1660301758.21875
5.14,1660301758.234375
5.83,1660301758.25
6.45,1660301758.265625
7.04,1660301758.28125
7.57,1660301758.296875
7.94,1660301758.3125
7.98,1660301758.328125
7.6,1660301758.34375
6.86,1660301758.359375
5.88,1660301758.375
4.84,1660301758.390625
3.81,1660301758.40625
2.82,1660301758.421875
1.8,1660301758.4375
0.72,1660301758.453125
-0.44,1660301758.46875
-1.66,1660301758.484375
-2.89,1660301758.5
-4.11,1660301758.515625
-5.28,1660301758.53125
-6.35,1660301758.546875
-7.32,1660301758.5625
-8.19,1660301758.578125
-9.08,1660301758.59375
-10.15,1660301758.609375
-11.58,1660301758.625
-13.48,1660301758.640625
-15.76,1660301758.65625
-18.13,1660301758.671875
-20.17,1660301758.6875
-21.4,1660301758.703125
-21.47,1660301758.71875
-20.23,1660301758.734375
-17.81,1660301758.75
-14.51,1660301758.765625
-10.79,1660301758.78125
-7.08,1660301758.796875
-3.76,1660301758.8125
-1.05,1660301758.828125
0.95,1660301758.84375
2.28,1660301758.859375
3.06,1660301758.875
3.49,1660301758.890625
3.78,1660301758.90625
4.11,1660301758.921875
4.63,1660301758.9375
5.39,1660301758.953125
6.38,1660301758.96875
7.52,1660301758.984375
8.68,1660301759.0
9.74,1660301759.015625
10.57,1660301759.03125
11.13,1660301759.046875
11.43,1660301759.0625
11.55,1660301759.078125
11.53,1660301759.09375
11.39,1660301759.109375
11.11,1660301759.125
10.62,1660301759.140625
9.96,1660301759.15625
9.19,1660301759.171875
8.44,1660301759.1875
7.8,1660301759.203125
7.3,1660301759.21875
6.9,1660301759.234375
6.59,1660301759.25
6.33,1660301759.265625
6.15,1660301759.28125
6.06,1660301759.296875
6.05,1660301759.3125
6.07,1660301759.328125
6.09,1660301759.34375
6.07,1660301759.359375
5.95,1660301759.375
5.6,1660301759.390625
4.77,1660301759.40625
3.19,1660301759.421875
0.64,1660301759.4375
-2.88,1660301759.453125
-7.08,1660301759.46875
-11.5,1660301759.484375
-15.55,1660301759.5
-18.77,1660301759.515625
-20.81,1660301759.53125
-21.53,1660301759.546875
-20.91,1660301759.5625
-19.13,1660301759.578125
-16.47,1660301759.59375
-13.39,1660301759.609375
-10.36,1660301759.625
-7.79,1660301759.640625
-5.83,1660301759.65625
-4.46,1660301759.671875
-3.48,1660301759.6875
-2.64,1660301759.703125
-1.79,1660301759.71875
-0.85,1660301759.734375
0.19,1660301759.75
1.31,1660301759.765625
2.52,1660301759.78125
3.88,1660301759.796875
5.45,1660301759.8125
7.24,1660301759.828125
9.23,1660301759.84375
11.28,1660301759.859375
13.24,1660301759.875
14.9,1660301759.890625
16.09,1660301759.90625
16.74,1660301759.921875
16.96,1660301759.9375
17.0,1660301759.953125
17.22,1660301759.96875
17.9,1660301759.984375
19.12,1660301760.0
20.67,1660301760.015625
22.1,1660301760.03125
22.84,1660301760.046875
22.49,1660301760.0625
20.93,1660301760.078125
18.34,1660301760.09375
15.15,1660301760.109375
11.78,1660301760.125
8.56,1660301760.140625
5.6,1660301760.15625
2.84,1660301760.171875
0.16,1660301760.1875
-2.56,1660301760.203125
-5.35,1660301760.21875
-8.21,1660301760.234375
-11.06,1660301760.25
-13.77,1660301760.265625
-16.16,1660301760.28125
-17.93,1660301760.296875
-18.73,1660301760.3125
-18.31,1660301760.328125
-16.58,1660301760.34375
-13.72,1660301760.359375
-10.17,1660301760.375
-6.47,1660301760.390625
-3.13,1660301760.40625
-0.44,1660301760.421875
1.48,1660301760.4375
2.69,1660301760.453125
3.28,1660301760.46875
3.34,1660301760.484375
3.03,1660301760.5
2.54,1660301760.515625
2.14,1660301760.53125
2.08,1660301760.546875
2.52,1660301760.5625
3.42,1660301760.578125
4.57,1660301760.59375
5.7,1660301760.609375
6.58,1660301760.625
7.13,1660301760.640625
7.33,1660301760.65625
7.23,1660301760.671875
6.8,1660301760.6875
6.02,1660301760.703125
4.81,1660301760.71875
3.2,1660301760.734375
1.27,1660301760.75
-0.82,1660301760.765625
-2.89,1660301760.78125
-4.86,1660301760.796875
-6.68,1660301760.8125
-8.39,1660301760.828125
-10.01,1660301760.84375
-11.52,1660301760.859375
-12.83,1660301760.875
-13.81,1660301760.890625
-14.36,1660301760.90625
-14.52,1660301760.921875
-14.45,1660301760.9375
-14.44,1660301760.953125
-14.82,1660301760.96875
-15.84,1660301760.984375
-17.57,1660301761.0
-19.83,1660301761.015625
-22.23,1660301761.03125
-24.24,1660301761.046875
-25.4,1660301761.0625
-25.37,1660301761.078125
-24.06,1660301761.09375
-21.59,1660301761.109375
-18.24,1660301761.125
-14.38,1660301761.140625
-10.4,1660301761.15625
-6.7,1660301761.171875
-3.62,1660301761.1875
-1.34,1660301761.203125
0.11,1660301761.21875
0.91,1660301761.234375
1.33,1660301761.25
1.62,1660301761.265625
1.91,1660301761.28125
2.2,1660301761.296875
2.38,1660301761.3125
2.36,1660301761.328125
2.11,1660301761.34375
1.68,1660301761.359375
1.17,1660301761.375
0.66,1660301761.390625
0.26,1660301761.40625
0.01,1660301761.421875
-0.03,1660301761.4375
0.15,1660301761.453125
0.49,1660301761.46875
0.87,1660301761.484375
1.11,1660301761.5
1.11,1660301761.515625
0.86,1660301761.53125
0.49,1660301761.546875
0.17,1660301761.5625
0.02,1660301761.578125
0.05,1660301761.59375
0.11,1660301761.609375
-0.01,1660301761.625
-0.46,1660301761.640625
-1.27,1660301761.65625
-2.37,1660301761.671875
-3.54,1660301761.6875
-4.6,1660301761.703125
-5.38,1660301761.71875
-5.87,1660301761.734375
-6.16,1660301761.75
-6.45,1660301761.765625
-6.94,1660301761.78125
-7.79,1660301761.796875
-9.03,1660301761.8125
-10.55,1660301761.828125
-12.13,1660301761.84375
-13.43,1660301761.859375
-14.12,1660301761.875
-13.89,1660301761.890625
-12.53,1660301761.90625
-10.01,1660301761.921875
-6.52,1660301761.9375
-2.47,1660301761.953125
1.63,1660301761.96875
5.34,1660301761.984375
8.43,1660301762.0
10.9,1660301762.015625
12.95,1660301762.03125
14.79,1660301762.046875
16.48,1660301762.0625
17.97,1660301762.078125
19.09,1660301762.09375
19.72,1660301762.109375
19.87,1660301762.125
19.68,1660301762.140625
19.33,1660301762.15625
18.99,1660301762.171875
18.77,1660301762.1875
18.63,1660301762.203125
18.56,1660301762.21875
18.54,1660301762.234375
18.56,1660301762.25
18.61,1660301762.265625
18.64,1660301762.28125
18.5,1660301762.296875
18.08,1660301762.3125
17.27,1660301762.328125
16.08,1660301762.34375
14.59,1660301762.359375
12.95,1660301762.375
11.28,1660301762.390625
9.69,1660301762.40625
8.21,1660301762.421875
6.79,1660301762.4375
5.36,1660301762.453125
3.85,1660301762.46875
2.18,1660301762.484375
0.35,1660301762.5
-1.6,1660301762.515625
-3.54,1660301762.53125
-5.37,1660301762.546875
-7.03,1660301762.5625
-8.57,1660301762.578125
-10.16,1660301762.59375
-12.04,1660301762.609375
-14.4,1660301762.625
-17.23,1660301762.640625
-20.33,1660301762.65625
-23.28,1660301762.671875
-25.57,1660301762.6875
-26.75,1660301762.703125
-26.47,1660301762.71875
-24.61,1660301762.734375
-21.24,1660301762.75
-16.68,1660301762.765625
-11.41,1660301762.78125
-6.05,1660301762.796875
-1.15,1660301762.8125
2.89,1660301762.828125
5.96,1660301762.84375
8.14,1660301762.859375
9.63,1660301762.875
10.56,1660301762.890625
10.94,1660301762.90625
10.76,1660301762.921875
10.07,1660301762.9375
9.08,1660301762.953125
8.13,1660301762.96875
7.56,1660301762.984375
7.53,1660301763.0
7.97,1660301763.015625
8.68,1660301763.03125
9.44,1660301763.046875
10.21,1660301763.0625
11.09,1660301763.078125
12.22,1660301763.09375
13.69,1660301763.109375
15.39,1660301763.125
17.09,1660301763.140625
18.52,1660301763.15625
19.51,1660301763.171875
20.03,1660301763.1875
20.21,1660301763.203125
20.22,1660301763.21875
20.1,1660301763.234375
19.78,1660301763.25
19.06,1660301763.265625
17.78,1660301763.28125
15.89,1660301763.296875
13.46,1660301763.3125
10.67,1660301763.328125
7.66,1660301763.34375
4.45,1660301763.359375
0.96,1660301763.375
-2.89,1660301763.390625
-7.14,1660301763.40625
-11.69,1660301763.421875
-16.3,1660301763.4375
-20.65,1660301763.453125
-24.33,1660301763.46875
-26.99,1660301763.484375
-28.27,1660301763.5
-28.0,1660301763.515625
-26.16,1660301763.53125
-23.0,1660301763.546875
-18.95,1660301763.5625
-14.54,1660301763.578125
-10.27,1660301763.59375
-6.45,1660301763.609375
-3.23,1660301763.625
-0.57,1660301763.640625
1.62,1660301763.65625
3.46,1660301763.671875
5.08,1660301763.6875
6.57,1660301763.703125
8.0,1660301763.71875
9.39,1660301763.734375
10.73,1660301763.75
11.97,1660301763.765625
13.0,1660301763.78125
13.73,1660301763.796875
14.09,1660301763.8125
14.03,1660301763.828125
13.56,1660301763.84375
12.72,1660301763.859375
11.54,1660301763.875
10.07,1660301763.890625
8.3,1660301763.90625
6.28,1660301763.921875
4.0,1660301763.9375
1.51,1660301763.953125
-1.12,1660301763.96875
-3.75,1660301763.984375
-6.18,1660301764.0
-8.18,1660301764.015625
-9.57,1660301764.03125
-10.31,1660301764.046875
-10.5,1660301764.0625
-10.4,1660301764.078125
-10.3,1660301764.09375
-10.36,1660301764.109375
-10.57,1660301764.125
-10.75,1660301764.140625
-10.68,1660301764.15625
-10.26,1660301764.171875
-9.59,1660301764.1875
-8.93,1660301764.203125
-8.61,1660301764.21875
-8.9,1660301764.234375
-9.92,1660301764.25
-11.63,1660301764.265625
-13.92,1660301764.28125
-16.59,1660301764.296875
-19.41,1660301764.3125
-22.09,1660301764.328125
-24.24,1660301764.34375
-25.47,1660301764.359375
-25.49,1660301764.375
-24.16,1660301764.390625
-21.66,1660301764.40625
-18.31,1660301764.421875
-14.56,1660301764.4375
-10.78,1660301764.453125
-7.26,1660301764.46875
-4.13,1660301764.484375
-1.44,1660301764.5
0.87,1660301764.515625
2.92,1660301764.53125
4.87,1660301764.546875
6.85,1660301764.5625
8.85,1660301764.578125
10.76,1660301764.59375
12.43,1660301764.609375
13.75,1660301764.625
14.73,1660301764.640625
15.51,1660301764.65625
16.21,1660301764.671875
16.81,1660301764.6875
17.07,1660301764.703125
16.7,1660301764.71875
15.52,1660301764.734375
13.61,1660301764.75
11.31,1660301764.765625
9.08,1660301764.78125
7.25,1660301764.796875
5.94,1660301764.8125
5.04,1660301764.828125
4.4,1660301764.84375
3.98,1660301764.859375
3.87,1660301764.875
4.22,1660301764.890625
5.12,1660301764.90625
6.45,1660301764.921875
7.99,1660301764.9375
9.41,1660301764.953125
10.5,1660301764.96875
11.2,1660301764.984375
11.59,1660301765.0
11.82,1660301765.015625
11.98,1660301765.03125
12.09,1660301765.046875
12.02,1660301765.0625
11.66,1660301765.078125
10.87,1660301765.09375
9.57,1660301765.109375
7.71,1660301765.125
5.2,1660301765.140625
2.01,1660301765.15625
-1.8,1660301765.171875
-5.89,1660301765.1875
-9.77,1660301765.203125
-12.79,1660301765.21875
-14.42,1660301765.234375
-14.41,1660301765.25
-12.89,1660301765.265625
-10.34,1660301765.28125
-7.33,1660301765.296875
-4.36,1660301765.3125
-1.69,1660301765.328125
0.62,1660301765.34375
2.6,1660301765.359375
4.29,1660301765.375
5.68,1660301765.390625
6.73,1660301765.40625
7.52,1660301765.421875
8.23,1660301765.4375
9.1,1660301765.453125
10.33,1660301765.46875
11.94,1660301765.484375
13.72,1660301765.5
15.4,1660301765.515625
16.72,1660301765.53125
17.61,1660301765.546875
18.18,1660301765.5625
18.61,1660301765.578125
19.01,1660301765.59375
19.33,1660301765.609375
19.32,1660301765.625
18.69,1660301765.640625
17.24,1660301765.65625
14.96,1660301765.671875
12.05,1660301765.6875
8.87,1660301765.703125
5.75,1660301765.71875
3.0,1660301765.734375
0.82,1660301765.75
-0.76,1660301765.765625
-1.77,1660301765.78125
-2.31,1660301765.796875
-2.52,1660301765.8125
-2.48,1660301765.828125
-2.17,1660301765.84375
-1.57,1660301765.859375
-0.64,1660301765.875
0.57,1660301765.890625
1.89,1660301765.90625
2.99,1660301765.921875
3.6,1660301765.9375
3.49,1660301765.953125
2.59,1660301765.96875
1.03,1660301765.984375
-0.9,1660301766.0
-2.79,1660301766.015625
-4.2,1660301766.03125
-4.75,1660301766.046875
-4.24,1660301766.0625
-2.68,1660301766.078125
-0.37,1660301766.09375
2.2,1660301766.109375
4.47,1660301766.125
6.03,1660301766.140625
6.7,1660301766.15625
6.54,1660301766.171875
5.81,1660301766.1875
4.77,1660301766.203125
3.67,1660301766.21875
2.66,1660301766.234375
1.83,1660301766.25
1.24,1660301766.265625
0.93,1660301766.28125
0.91,1660301766.296875
1.15,1660301766.3125
1.59,1660301766.328125
2.14,1660301766.34375
2.73,1660301766.359375
3.26,1660301766.375
3.7,1660301766.390625
3.99,1660301766.40625
4.08,1660301766.421875
3.92,1660301766.4375
3.45,1660301766.453125
2.64,1660301766.46875
1.51,1660301766.484375
0.13,1660301766.5
-1.34,1660301766.515625
-2.72,1660301766.53125
-3.83,1660301766.546875
-4.58,1660301766.5625
-4.98,1660301766.578125
-5.14,1660301766.59375
-5.22,1660301766.609375
-5.36,1660301766.625
-5.68,1660301766.640625
-6.26,1660301766.65625
-7.07,1660301766.671875
-8.07,1660301766.6875
-9.16,1660301766.703125
-10.2,1660301766.71875
-11.12,1660301766.734375
-12.0,1660301766.75
-13.01,1660301766.765625
-14.4,1660301766.78125
-16.35,1660301766.796875
-18.81,1660301766.8125
-21.45,1660301766.828125
-23.76,1660301766.84375
-25.18,1660301766.859375
-25.33,1660301766.875
-24.16,1660301766.890625
-21.93,1660301766.90625
-19.1,1660301766.921875
-16.17,1660301766.9375
-13.5,1660301766.953125
-11.19,1660301766.96875
-9.23,1660301766.984375
-7.51,1660301767.0
-5.96,1660301767.015625
-4.6,1660301767.03125
-3.44,1660301767.046875
-2.43,1660301767.0625
-1.47,1660301767.078125
-0.39,1660301767.09375
0.94,1660301767.109375
2.47,1660301767.125
4.1,1660301767.140625
5.68,1660301767.15625
7.13,1660301767.171875
8.5,1660301767.1875
9.9,1660301767.203125
11.41,1660301767.21875
12.98,1660301767.234375
14.5,1660301767.25
15.76,1660301767.265625
16.57,1660301767.28125
16.78,1660301767.296875
16.32,1660301767.3125
15.2,1660301767.328125
13.6,1660301767.34375
11.81,1660301767.359375
10.19,1660301767.375
9.04,1660301767.390625
8.42,1660301767.40625
8.14,1660301767.421875
7.86,1660301767.4375
7.2,1660301767.453125
5.96,1660301767.46875
4.16,1660301767.484375
2.06,1660301767.5
-0.06,1660301767.515625
-1.93,1660301767.53125
-3.46,1660301767.546875
-4.74,1660301767.5625
-6.01,1660301767.578125
-7.56,1660301767.59375
-9.63,1660301767.609375
-12.41,1660301767.625
-15.85,1660301767.640625
-19.71,1660301767.65625
-23.53,1660301767.671875
-26.76,1660301767.6875
-28.87,1660301767.703125
-29.53,1660301767.71875
-28.65,1660301767.734375
-26.49,1660301767.75
-23.55,1660301767.765625
-20.43,1660301767.78125
-17.64,1660301767.796875
-15.51,1660301767.8125
-14.12,1660301767.828125
-13.35,1660301767.84375
-12.95,1660301767.859375
-12.7,1660301767.875
-12.38,1660301767.890625
-11.85,1660301767.90625
-11.07,1660301767.921875
-10.05,1660301767.9375
-8.85,1660301767.953125
-7.57,1660301767.96875
-6.36,1660301767.984375
-5.34,1660301768.0
-4.67,1660301768.015625
-4.43,1660301768.03125
-4.68,1660301768.046875
-5.35,1660301768.0625
-6.3,1660301768.078125
-7.29,1660301768.09375
-8.01,1660301768.109375
-8.24,1660301768.125
-7.9,1660301768.140625
-7.04,1660301768.15625
-5.86,1660301768.171875
-4.55,1660301768.1875
-3.2,1660301768.203125
-1.85,1660301768.21875
-0.47,1660301768.234375
0.94,1660301768.25
2.36,1660301768.265625
3.73,1660301768.28125
5.05,1660301768.296875
6.32,1660301768.3125
7.55,1660301768.328125
8.66,1660301768.34375
9.47,1660301768.359375
9.73,1660301768.375
9.28,1660301768.390625
8.09,1660301768.40625
6.29,1660301768.421875
4.19,1660301768.4375
2.05,1660301768.453125
0.08,1660301768.46875
-1.61,1660301768.484375
-2.88,1660301768.5
-3.56,1660301768.515625
-3.31,1660301768.53125
-1.78,1660301768.546875
1.25,1660301768.5625
5.76,1660301768.578125
11.37,1660301768.59375
17.43,1660301768.609375
23.18,1660301768.625
27.91,1660301768.640625
31.22,1660301768.65625
33.01,1660301768.671875
33.48,1660301768.6875
33.01,1660301768.703125
31.95,1660301768.71875
30.53,1660301768.734375
28.86,1660301768.75
27.0,1660301768.765625
24.99,1660301768.78125
22.95,1660301768.796875
21.03,1660301768.8125
19.37,1660301768.828125
18.05,1660301768.84375
17.08,1660301768.859375
16.38,1660301768.875
15.87,1660301768.890625
15.44,1660301768.90625
15.05,1660301768.921875
14.64,1660301768.9375
14.2,1660301768.953125
13.68,1660301768.96875
13.06,1660301768.984375
12.3,1660301769.0
11.33,1660301769.015625
10.13,1660301769.03125
8.71,1660301769.046875
7.12,1660301769.0625
5.44,1660301769.078125
3.79,1660301769.09375
2.23,1660301769.109375
0.7,1660301769.125
-0.97,1660301769.140625
-3.01,1660301769.15625
-5.64,1660301769.171875
-8.89,1660301769.1875
-12.59,1660301769.203125
-16.41,1660301769.21875
-20.01,1660301769.234375
-23.17,1660301769.25
-25.86,1660301769.265625
-28.14,1660301769.28125
-30.08,1660301769.296875
-31.54,1660301769.3125
-32.2,1660301769.328125
-31.69,1660301769.34375
-29.73,1660301769.359375
-26.38,1660301769.375
-21.99,1660301769.390625
-17.18,1660301769.40625
-12.61,1660301769.421875
-8.73,1660301769.4375
-5.7,1660301769.453125
-3.44,1660301769.46875
-1.74,1660301769.484375
-0.44,1660301769.5
0.5,1660301769.515625
0.98,1660301769.53125
0.96,1660301769.546875
0.47,1660301769.5625
-0.23,1660301769.578125
-0.8,1660301769.59375
-0.92,1660301769.609375
-0.44,1660301769.625
0.6,1660301769.640625
1.98,1660301769.65625
3.48,1660301769.671875
4.97,1660301769.6875
6.36,1660301769.703125
7.67,1660301769.71875
8.87,1660301769.734375
9.93,1660301769.75
10.8,1660301769.765625
11.44,1660301769.78125
11.81,1660301769.796875
11.91,1660301769.8125
11.71,1660301769.828125
11.23,1660301769.84375
10.51,1660301769.859375
9.58,1660301769.875
8.43,1660301769.890625
7.07,1660301769.90625
5.41,1660301769.921875
3.41,1660301769.9375
1.1,1660301769.953125
-1.41,1660301769.96875
-3.93,1660301769.984375
-6.34,1660301770.0
-8.59,1660301770.015625
-10.77,1660301770.03125
-13.01,1660301770.046875
-15.38,1660301770.0625
-17.76,1660301770.078125
-19.88,1660301770.09375
-21.32,1660301770.109375
-21.72,1660301770.125
-20.85,1660301770.140625
-18.7,1660301770.15625
-15.51,1660301770.171875
-11.68,1660301770.1875
-7.69,1660301770.203125
-4.01,1660301770.21875
-1.0,1660301770.234375
1.1,1660301770.25
2.27,1660301770.265625
2.65,1660301770.28125
2.54,1660301770.296875
2.28,1660301770.3125
2.16,1660301770.328125
2.3,1660301770.34375
2.71,1660301770.359375
3.27,1660301770.375
3.89,1660301770.390625
4.56,1660301770.40625
5.35,1660301770.421875
6.33,1660301770.4375
7.49,1660301770.453125
8.74,1660301770.46875
9.97,1660301770.484375
11.07,1660301770.5
11.98,1660301770.515625
12.74,1660301770.53125
13.36,1660301770.546875
13.84,1660301770.5625
14.09,1660301770.578125
14.0,1660301770.59375
13.48,1660301770.609375
12.49,1660301770.625
11.09,1660301770.640625
9.38,1660301770.65625
7.51,1660301770.671875
5.57,1660301770.6875
3.63,1660301770.703125
1.71,1660301770.71875
-0.13,1660301770.734375
-1.77,1660301770.75
-3.1,1660301770.765625
-3.96,1660301770.78125
-4.38,1660301770.796875
-4.5,1660301770.8125
-4.63,1660301770.828125
-5.08,1660301770.84375
-6.05,1660301770.859375
-7.51,1660301770.875
-9.14,1660301770.890625
-10.45,1660301770.90625
-10.89,1660301770.921875
-10.08,1660301770.9375
-7.87,1660301770.953125
-4.45,1660301770.96875
-0.24,1660301770.984375
4.19,1660301771.0
8.28,1660301771.015625
11.62,1660301771.03125
13.98,1660301771.046875
15.39,1660301771.0625
16.05,1660301771.078125
16.28,1660301771.09375
16.38,1660301771.109375
16.59,1660301771.125
16.98,1660301771.140625
17.54,1660301771.15625
18.18,1660301771.171875
18.83,1660301771.1875
19.45,1660301771.203125
20.07,1660301771.21875
20.68,1660301771.234375
21.22,1660301771.25
21.63,1660301771.265625
21.77,1660301771.28125
21.51,1660301771.296875
20.72,1660301771.3125
19.28,1660301771.328125
17.1,1660301771.34375
14.2,1660301771.359375
10.71,1660301771.375
6.91,1660301771.390625
3.17,1660301771.40625
-0.2,1660301771.421875
-3.02,1660301771.4375
-5.3,1660301771.453125
-7.16,1660301771.46875
-8.77,1660301771.484375
-10.21,1660301771.5
-11.47,1660301771.515625
-12.51,1660301771.53125
-13.3,1660301771.546875
-13.96,1660301771.5625
-14.7,1660301771.578125
-15.76,1660301771.59375
-17.37,1660301771.609375
-19.56,1660301771.625
-22.16,1660301771.640625
-24.84,1660301771.65625
-27.14,1660301771.671875
-28.65,1660301771.6875
-29.09,1660301771.703125
-28.37,1660301771.71875
-26.63,1660301771.734375
-24.2,1660301771.75
-21.5,1660301771.765625
-18.97,1660301771.78125
-16.94,1660301771.796875
-15.55,1660301771.8125
-14.77,1660301771.828125
-14.39,1660301771.84375
-14.22,1660301771.859375
-14.08,1660301771.875
-13.87,1660301771.890625
-13.52,1660301771.90625
-12.97,1660301771.921875
-12.15,1660301771.9375
-11.04,1660301771.953125
-9.66,1660301771.96875
-8.14,1660301771.984375
-6.61,1660301772.0
-5.14,1660301772.015625
-3.73,1660301772.03125
-2.3,1660301772.046875
-0.85,1660301772.0625
0.55,1660301772.078125
1.72,1660301772.09375
2.44,1660301772.109375
2.57,1660301772.125
2.12,1660301772.140625
1.18,1660301772.15625
-0.08,1660301772.171875
-1.49,1660301772.1875
-2.92,1660301772.203125
-4.28,1660301772.21875
-5.5,1660301772.234375
-6.6,1660301772.25
-7.65,1660301772.265625
-8.74,1660301772.28125
-9.99,1660301772.296875
-11.43,1660301772.3125
-13.02,1660301772.328125
-14.65,1660301772.34375
-16.25,1660301772.359375
-17.8,1660301772.375
-19.37,1660301772.390625
-21.01,1660301772.40625
-22.68,1660301772.421875
-24.24,1660301772.4375
-25.42,1660301772.453125
-25.9,1660301772.46875
-25.42,1660301772.484375
-23.82,1660301772.5
-21.11,1660301772.515625
-17.45,1660301772.53125
-13.19,1660301772.546875
-8.77,1660301772.5625
-4.67,1660301772.578125
-1.26,1660301772.59375
1.28,1660301772.609375
3.0,1660301772.625
4.12,1660301772.640625
4.98,1660301772.65625
5.86,1660301772.671875
6.92,1660301772.6875
8.19,1660301772.703125
9.59,1660301772.71875
11.02,1660301772.734375
12.38,1660301772.75
13.61,1660301772.765625
14.69,1660301772.78125
15.63,1660301772.796875
16.45,1660301772.8125
17.17,1660301772.828125
17.83,1660301772.84375
18.4,1660301772.859375
18.84,1660301772.875
19.04,1660301772.890625
18.87,1660301772.90625
18.23,1660301772.921875
17.14,1660301772.9375
15.7,1660301772.953125
14.11,1660301772.96875
12.55,1660301772.984375
11.08,1660301773.0
9.62,1660301773.015625
8.03,1660301773.03125
6.17,1660301773.046875
4.04,1660301773.0625
1.81,1660301773.078125
-0.26,1660301773.09375
-1.92,1660301773.109375
-3.09,1660301773.125
-3.83,1660301773.140625
-4.31,1660301773.15625
-4.71,1660301773.171875
-5.19,1660301773.1875
-5.87,1660301773.203125
-6.9,1660301773.21875
-8.41,1660301773.234375
-10.47,1660301773.25
-12.91,1660301773.265625
-15.29,1660301773.28125
-17.0,1660301773.296875
-17.44,1660301773.3125
-16.35,1660301773.328125
-13.83,1660301773.34375
-10.32,1660301773.359375
-6.4,1660301773.375
-2.51,1660301773.390625
1.07,1660301773.40625
4.24,1660301773.421875
6.94,1660301773.4375
9.06,1660301773.453125
10.51,1660301773.46875
11.3,1660301773.484375
11.55,1660301773.5
11.55,1660301773.515625
11.55,1660301773.53125
11.69,1660301773.546875
11.99,1660301773.5625
12.35,1660301773.578125
12.67,1660301773.59375
12.93,1660301773.609375
13.18,1660301773.625
13.5,1660301773.640625
13.92,1660301773.65625
14.43,1660301773.671875
14.98,1660301773.6875
15.46,1660301773.703125
15.79,1660301773.71875
15.88,1660301773.734375
15.64,1660301773.75
15.03,1660301773.765625
14.1,1660301773.78125
12.96,1660301773.796875
11.78,1660301773.8125
10.68,1660301773.828125
9.7,1660301773.84375
8.7,1660301773.859375
7.46,1660301773.875
5.81,1660301773.890625
3.75,1660301773.90625
1.5,1660301773.921875
-0.55,1660301773.9375
-2.04,1660301773.953125
-2.85,1660301773.96875
-3.18,1660301773.984375
-3.47,1660301774.0
-4.2,1660301774.015625
-5.61,1660301774.03125
-7.6,1660301774.046875
-9.74,1660301774.0625
-11.42,1660301774.078125
-12.14,1660301774.09375
-11.65,1660301774.109375
-10.09,1660301774.125
-7.82,1660301774.140625
-5.37,1660301774.15625
-3.14,1660301774.171875
-1.35,1660301774.1875
0.01,1660301774.203125
1.07,1660301774.21875
1.98,1660301774.234375
2.79,1660301774.25
3.41,1660301774.265625
3.75,1660301774.28125
3.75,1660301774.296875
3.53,1660301774.3125
3.34,1660301774.328125
3.44,1660301774.34375
4.01,1660301774.359375
5.04,1660301774.375
6.33,1660301774.390625
7.58,1660301774.40625
8.57,1660301774.421875
9.16,1660301774.4375
9.36,1660301774.453125
9.27,1660301774.46875
8.98,1660301774.484375
8.52,1660301774.5
7.86,1660301774.515625
6.96,1660301774.53125
5.77,1660301774.546875
4.32,1660301774.5625
2.77,1660301774.578125
1.33,1660301774.59375
0.23,1660301774.609375
-0.43,1660301774.625
-0.74,1660301774.640625
-0.96,1660301774.65625
-1.44,1660301774.671875
-2.47,1660301774.6875
-4.15,1660301774.703125
-6.42,1660301774.71875
-9.03,1660301774.734375
-11.7,1660301774.75
-14.21,1660301774.765625
-16.39,1660301774.78125
-18.22,1660301774.796875
-19.77,1660301774.8125
-21.18,1660301774.828125
-22.57,1660301774.84375
-24.02,1660301774.859375
-25.43,1660301774.875
-26.53,1660301774.890625
-26.91,1660301774.90625
-26.19,1660301774.921875
-24.14,1660301774.9375
-20.84,1660301774.953125
-16.65,1660301774.96875
-12.16,1660301774.984375
-8.05,1660301775.0
-4.87,1660301775.015625
-2.9,1660301775.03125
-2.06,1660301775.046875
-1.88,1660301775.0625
-1.74,1660301775.078125
-1.03,1660301775.09375
0.57,1660301775.109375
3.02,1660301775.125
5.93,1660301775.140625
8.81,1660301775.15625
11.2,1660301775.171875
12.91,1660301775.1875
13.92,1660301775.203125
14.44,1660301775.21875
14.63,1660301775.234375
14.65,1660301775.25
14.54,1660301775.265625
14.38,1660301775.28125
14.23,1660301775.296875
14.23,1660301775.3125
14.51,1660301775.328125
15.09,1660301775.34375
15.85,1660301775.359375
16.52,1660301775.375
16.8,1660301775.390625
16.47,1660301775.40625
15.49,1660301775.421875
14.03,1660301775.4375
12.4,1660301775.453125
10.87,1660301775.46875
9.6,1660301775.484375
8.55,1660301775.5
7.51,1660301775.515625
6.22,1660301775.53125
4.56,1660301775.546875
2.54,1660301775.5625
0.39,1660301775.578125
-1.63,1660301775.59375
-3.28,1660301775.609375
-4.52,1660301775.625
-5.48,1660301775.640625
-6.37,1660301775.65625
-7.41,1660301775.671875
-8.72,1660301775.6875
-10.3,1660301775.703125
-12.04,1660301775.71875
-13.72,1660301775.734375
-15.07,1660301775.75
-15.75,1660301775.765625
-15.5,1660301775.78125
-14.19,1660301775.796875
-11.89,1660301775.8125
-8.9,1660301775.828125
-5.58,1660301775.84375
-2.28,1660301775.859375
0.79,1660301775.875
3.54,1660301775.890625
5.98,1660301775.90625
8.15,1660301775.921875
10.05,1660301775.9375
11.71,1660301775.953125
13.2,1660301775.96875
14.61,1660301775.984375
16.01,1660301776.0
17.43,1660301776.015625
18.74,1660301776.03125
19.75,1660301776.046875
20.31,1660301776.0625
20.39,1660301776.078125
20.13,1660301776.09375
19.78,1660301776.109375
19.57,1660301776.125
19.63,1660301776.140625
19.94,1660301776.15625
20.3,1660301776.171875
20.47,1660301776.1875
20.28,1660301776.203125
19.63,1660301776.21875
18.57,1660301776.234375
17.26,1660301776.25
15.85,1660301776.265625
14.49,1660301776.28125
13.19,1660301776.296875
11.87,1660301776.3125
10.38,1660301776.328125
8.58,1660301776.34375
6.45,1660301776.359375
4.05,1660301776.375
1.57,1660301776.390625
-0.84,1660301776.40625
-3.04,1660301776.421875
-5.01,1660301776.4375
-6.73,1660301776.453125
-8.23,1660301776.46875
-9.55,1660301776.484375
-10.85,1660301776.5
-12.36,1660301776.515625
-14.34,1660301776.53125
-16.88,1660301776.546875
-19.74,1660301776.5625
-22.36,1660301776.578125
-23.97,1660301776.59375
-23.96,1660301776.609375
-22.13,1660301776.625
-18.79,1660301776.640625
-14.64,1660301776.65625
-10.45,1660301776.671875
-6.84,1660301776.6875
-4.08,1660301776.703125
-2.17,1660301776.71875
-0.99,1660301776.734375
-0.42,1660301776.75
-0.32,1660301776.765625
-0.56,1660301776.78125
-0.91,1660301776.796875
-1.1,1660301776.8125
-0.89,1660301776.828125
-0.15,1660301776.84375
1.07,1660301776.859375
2.58,1660301776.875
4.11,1660301776.890625
5.43,1660301776.90625
6.35,1660301776.921875
6.8,1660301776.9375
6.75,1660301776.953125
6.23,1660301776.96875
5.3,1660301776.984375
4.07,1660301777.0
2.6,1660301777.015625
1.0,1660301777.03125
-0.71,1660301777.046875
-2.48,1660301777.0625
-4.26,1660301777.078125
-5.99,1660301777.09375
-7.61,1660301777.109375
-9.08,1660301777.125
-10.48,1660301777.140625
-11.96,1660301777.15625
-13.75,1660301777.171875
-16.01,1660301777.1875
-18.75,1660301777.203125
-21.82,1660301777.21875
-24.94,1660301777.234375
-27.82,1660301777.25
-30.35,1660301777.265625
-32.54,1660301777.28125
-34.45,1660301777.296875
-36.04,1660301777.3125
-37.11,1660301777.328125
-37.34,1660301777.34375
-36.45,1660301777.359375
-34.37,1660301777.375
-31.24,1660301777.390625
-27.4,1660301777.40625
-23.2,1660301777.421875
-18.9,1660301777.4375
-14.6,1660301777.453125
-10.36,1660301777.46875
-6.27,1660301777.484375
-2.48,1660301777.5
0.82,1660301777.515625
3.57,1660301777.53125
5.87,1660301777.546875
7.94,1660301777.5625
10.09,1660301777.578125
12.52,1660301777.59375
15.28,1660301777.609375
18.22,1660301777.625
21.04,1660301777.640625
23.42,1660301777.65625
25.09,1660301777.671875
25.95,1660301777.6875
26.02,1660301777.703125
25.43,1660301777.71875
24.28,1660301777.734375
22.66,1660301777.75
20.65,1660301777.765625
18.4,1660301777.78125
16.12,1660301777.796875
14.17,1660301777.8125
12.86,1660301777.828125
12.33,1660301777.84375
12.5,1660301777.859375
13.01,1660301777.875
13.4,1660301777.890625
13.25,1660301777.90625
12.37,1660301777.921875
10.8,1660301777.9375
8.82,1660301777.953125
6.77,1660301777.96875
4.91,1660301777.984375
3.39,1660301778.0
2.15,1660301778.015625
1.13,1660301778.03125
0.24,1660301778.046875
-0.47,1660301778.0625
-0.91,1660301778.078125
-1.0,1660301778.09375
-0.82,1660301778.109375
-0.62,1660301778.125
-0.84,1660301778.140625
-1.91,1660301778.15625
-3.99,1660301778.171875
-6.92,1660301778.1875
-10.19,1660301778.203125
-13.12,1660301778.21875
-15.1,1660301778.234375
-15.79,1660301778.25
-15.15,1660301778.265625
-13.41,1660301778.28125
-10.93,1660301778.296875
-8.05,1660301778.3125
-5.1,1660301778.328125
-2.31,1660301778.34375
0.12,1660301778.359375
2.07,1660301778.375
3.43,1660301778.390625
4.18,1660301778.40625
4.34,1660301778.421875
4.04,1660301778.4375
3.46,1660301778.453125
2.86,1660301778.46875
2.49,1660301778.484375
2.52,1660301778.5
3.05,1660301778.515625
3.98,1660301778.53125
5.11,1660301778.546875
6.14,1660301778.5625
6.76,1660301778.578125
6.79,1660301778.59375
6.15,1660301778.609375
4.91,1660301778.625
3.24,1660301778.640625
1.35,1660301778.65625
-0.53,1660301778.671875
-2.21,1660301778.6875
-3.5,1660301778.703125
-4.26,1660301778.71875
-4.35,1660301778.734375
-3.74,1660301778.75
-2.54,1660301778.765625
-0.98,1660301778.78125
0.61,1660301778.796875
1.88,1660301778.8125
2.62,1660301778.828125
2.8,1660301778.84375
2.59,1660301778.859375
2.22,1660301778.875
1.93,1660301778.890625
1.8,1660301778.90625
1.75,1660301778.921875
1.58,1660301778.9375
1.05,1660301778.953125
0.06,1660301778.96875
-1.32,1660301778.984375
-2.85,1660301779.0
-4.16,1660301779.015625
-4.88,1660301779.03125
-4.74,1660301779.046875
-3.65,1660301779.0625
-1.72,1660301779.078125
0.82,1660301779.09375
3.56,1660301779.109375
6.13,1660301779.125
8.18,1660301779.140625
9.59,1660301779.15625
10.42,1660301779.171875
10.99,1660301779.1875
11.6,1660301779.203125
12.52,1660301779.21875
13.76,1660301779.234375
15.17,1660301779.25
16.45,1660301779.265625
17.35,1660301779.28125
17.74,1660301779.296875
17.62,1660301779.3125
17.18,1660301779.328125
16.63,1660301779.34375
16.19,1660301779.359375
15.97,1660301779.375
15.93,1660301779.390625
15.89,1660301779.40625
15.63,1660301779.421875
15.0,1660301779.4375
14.01,1660301779.453125
12.81,1660301779.46875
11.61,1660301779.484375
10.48,1660301779.5
9.3,1660301779.515625
7.82,1660301779.53125
5.8,1660301779.546875
3.25,1660301779.5625
0.41,1660301779.578125
-2.33,1660301779.59375
-4.7,1660301779.609375
-6.67,1660301779.625
-8.46,1660301779.640625
-10.36,1660301779.65625
-12.58,1660301779.671875
-15.1,1660301779.6875
-17.73,1660301779.703125
-20.24,1660301779.71875
-22.48,1660301779.734375
-24.37,1660301779.75
-25.86,1660301779.765625
-26.89,1660301779.78125
-27.37,1660301779.796875
-27.19,1660301779.8125
-26.36,1660301779.828125
-24.97,1660301779.84375
-23.2,1660301779.859375
-21.22,1660301779.875
-19.2,1660301779.890625
-17.24,1660301779.90625
-15.45,1660301779.921875
-13.88,1660301779.9375
-12.55,1660301779.953125
-11.45,1660301779.96875
-10.53,1660301779.984375
-9.77,1660301780.0
-9.19,1660301780.015625
-8.81,1660301780.03125
-8.61,1660301780.046875
-8.51,1660301780.0625
-8.37,1660301780.078125
-8.04,1660301780.09375
-7.4,1660301780.109375
-6.42,1660301780.125
-5.15,1660301780.140625
-3.76,1660301780.15625
-2.49,1660301780.171875
-1.63,1660301780.1875
-1.4,1660301780.203125
-1.92,1660301780.21875
-3.12,1660301780.234375
-4.79,1660301780.25
-6.68,1660301780.265625
-8.53,1660301780.28125
-10.21,1660301780.296875
-11.63,1660301780.3125
-12.78,1660301780.328125
-13.67,1660301780.34375
-14.37,1660301780.359375
-15.05,1660301780.375
-15.91,1660301780.390625
-17.13,1660301780.40625
-18.78,1660301780.421875
-20.8,1660301780.4375
-23.06,1660301780.453125
-25.43,1660301780.46875
-27.86,1660301780.484375
-30.29,1660301780.5
-32.62,1660301780.515625
-34.59,1660301780.53125
-35.81,1660301780.546875
-35.81,1660301780.5625
-34.24,1660301780.578125
-30.94,1660301780.59375
-26.08,1660301780.609375
-20.11,1660301780.625
-13.66,1660301780.640625
-7.45,1660301780.65625
-2.09,1660301780.671875
2.1,1660301780.6875
5.12,1660301780.703125
7.29,1660301780.71875
9.0,1660301780.734375
10.59,1660301780.75
12.2,1660301780.765625
13.76,1660301780.78125
15.14,1660301780.796875
16.28,1660301780.8125
17.2,1660301780.828125
17.87,1660301780.84375
18.17,1660301780.859375
17.8,1660301780.875
16.56,1660301780.890625
14.47,1660301780.90625
12.07,1660301780.921875
10.23,1660301780.9375
9.9,1660301780.953125
11.66,1660301780.96875
15.43,1660301780.984375
20.52,1660301781.0
25.86,1660301781.015625
30.53,1660301781.03125
33.98,1660301781.046875
36.1,1660301781.0625
37.06,1660301781.078125
37.04,1660301781.09375
36.15,1660301781.109375
34.41,1660301781.125
31.92,1660301781.140625
28.93,1660301781.15625
25.79,1660301781.171875
22.8,1660301781.1875
20.11,1660301781.203125
17.58,1660301781.21875
14.98,1660301781.234375
12.11,1660301781.25
8.92,1660301781.265625
5.62,1660301781.28125
2.62,1660301781.296875
0.39,1660301781.3125
-0.7,1660301781.328125
-0.52,1660301781.34375
0.76,1660301781.359375
2.65,1660301781.375
4.53,1660301781.390625
5.86,1660301781.40625
6.38,1660301781.421875
6.21,1660301781.4375
5.73,1660301781.453125
5.34,1660301781.46875
5.26,1660301781.484375
5.42,1660301781.5
5.63,1660301781.515625
5.68,1660301781.53125
5.56,1660301781.546875
5.46,1660301781.5625
5.56,1660301781.578125
5.9,1660301781.59375
6.32,1660301781.609375
6.48,1660301781.625
6.14,1660301781.640625
5.26,1660301781.65625
4.08,1660301781.671875
3.0,1660301781.6875
2.37,1660301781.703125
2.4,1660301781.71875
3.06,1660301781.734375
4.13,1660301781.75
5.32,1660301781.765625
6.32,1660301781.78125
6.91,1660301781.796875
6.89,1660301781.8125
6.21,1660301781.828125
4.99,1660301781.84375
3.49,1660301781.859375
2.07,1660301781.875
1.07,1660301781.890625
0.63,1660301781.90625
0.64,1660301781.921875
0.74,1660301781.9375
0.52,1660301781.953125
-0.38,1660301781.96875
-2.09,1660301781.984375
-4.45,1660301782.0
-7.19,1660301782.015625
-9.91,1660301782.03125
-12.29,1660301782.046875
-14.04,1660301782.0625
-14.94,1660301782.078125
-14.84,1660301782.09375
-13.7,1660301782.109375
-11.65,1660301782.125
-8.93,1660301782.140625
-5.9,1660301782.15625
-2.84,1660301782.171875
0.05,1660301782.1875
2.7,1660301782.203125
5.05,1660301782.21875
7.06,1660301782.234375
8.61,1660301782.25
9.59,1660301782.265625
9.99,1660301782.28125
9.9,1660301782.296875
9.5,1660301782.3125
8.98,1660301782.328125
8.47,1660301782.34375
8.01,1660301782.359375
7.57,1660301782.375
7.19,1660301782.390625
6.89,1660301782.40625
6.76,1660301782.421875
6.85,1660301782.4375
7.15,1660301782.453125
7.62,1660301782.46875
8.1,1660301782.484375
8.45,1660301782.5
8.46,1660301782.515625
7.96,1660301782.53125
6.83,1660301782.546875
5.07,1660301782.5625
2.8,1660301782.578125
0.28,1660301782.59375
-2.17,1660301782.609375
-4.26,1660301782.625
-5.85,1660301782.640625
-6.97,1660301782.65625
-7.82,1660301782.671875
-8.74,1660301782.6875
-9.98,1660301782.703125
-11.71,1660301782.71875
-13.88,1660301782.734375
-16.3,1660301782.75
-18.65,1660301782.765625
-20.62,1660301782.78125
-21.9,1660301782.796875
-22.27,1660301782.8125
-21.62,1660301782.828125
-19.94,1660301782.84375
-17.34,1660301782.859375
-14.12,1660301782.875
-10.67,1660301782.890625
-7.44,1660301782.90625
-4.82,1660301782.921875
-3.01,1660301782.9375
-1.97,1660301782.953125
-1.47,1660301782.96875
-1.19,1660301782.984375
-0.91,1660301783.0
-0.54,1660301783.015625
-0.19,1660301783.03125
-0.02,1660301783.046875
-0.12,1660301783.0625
-0.43,1660301783.078125
-0.73,1660301783.09375
-0.74,1660301783.109375
-0.26,1660301783.125
0.69,1660301783.140625
1.85,1660301783.15625
2.84,1660301783.171875
3.24,1660301783.1875
2.83,1660301783.203125
1.59,1660301783.21875
-0.26,1660301783.234375
-2.38,1660301783.25
-4.4,1660301783.265625
-6.04,1660301783.28125
-7.18,1660301783.296875
-7.76,1660301783.3125
-7.83,1660301783.328125
-7.51,1660301783.34375
-7.0,1660301783.359375
-6.57,1660301783.375
-6.54,1660301783.390625
-7.13,1660301783.40625
-8.37,1660301783.421875
-10.1,1660301783.4375
-11.96,1660301783.453125
-13.63,1660301783.46875
-14.95,1660301783.484375
-16.05,1660301783.5
-17.27,1660301783.515625
-18.97,1660301783.53125
-21.34,1660301783.546875
-24.19,1660301783.5625
-26.98,1660301783.578125
-28.95,1660301783.59375
-29.41,1660301783.609375
-28.05,1660301783.625
-25.02,1660301783.640625
-20.94,1660301783.65625
-16.62,1660301783.671875
-12.82,1660301783.6875
-9.9,1660301783.703125
-7.82,1660301783.71875
-6.25,1660301783.734375
-4.83,1660301783.75
-3.43,1660301783.765625
-2.22,1660301783.78125
-1.5,1660301783.796875
-1.47,1660301783.8125
-2.0,1660301783.828125
-2.64,1660301783.84375
-2.77,1660301783.859375
-1.92,1660301783.875
-0.03,1660301783.890625
2.64,1660301783.90625
5.61,1660301783.921875
8.53,1660301783.9375
11.25,1660301783.953125
13.86,1660301783.96875
16.51,1660301783.984375
19.2,1660301784.0
21.74,1660301784.015625
23.83,1660301784.03125
25.21,1660301784.046875
25.83,1660301784.0625
25.81,1660301784.078125
25.38,1660301784.09375
24.71,1660301784.109375
23.85,1660301784.125
22.76,1660301784.140625
21.44,1660301784.15625
20.01,1660301784.171875
18.72,1660301784.1875
17.87,1660301784.203125
17.65,1660301784.21875
18.02,1660301784.234375
18.69,1660301784.25
19.22,1660301784.265625
19.23,1660301784.28125
18.47,1660301784.296875
16.98,1660301784.3125
14.97,1660301784.328125
12.78,1660301784.34375
10.72,1660301784.359375
9.08,1660301784.375
8.1,1660301784.390625
7.92,1660301784.40625
8.61,1660301784.421875
10.08,1660301784.4375
12.06,1660301784.453125
14.16,1660301784.46875
15.94,1660301784.484375
17.08,1660301784.5
17.42,1660301784.515625
16.98,1660301784.53125
15.91,1660301784.546875
14.43,1660301784.5625
12.72,1660301784.578125
10.98,1660301784.59375
9.4,1660301784.609375
8.16,1660301784.625
7.4,1660301784.640625
7.18,1660301784.65625
7.41,1660301784.671875
7.88,1660301784.6875
8.42,1660301784.703125
8.83,1660301784.71875
9.04,1660301784.734375
8.99,1660301784.75
8.71,1660301784.765625
8.15,1660301784.78125
7.27,1660301784.796875
6.04,1660301784.8125
4.45,1660301784.828125
2.54,1660301784.84375
0.41,1660301784.859375
-1.85,1660301784.875
-4.17,1660301784.890625
-6.45,1660301784.90625
-8.65,1660301784.921875
-10.73,1660301784.9375
-12.72,1660301784.953125
-14.67,1660301784.96875
-16.62,1660301784.984375
-18.59,1660301785.0
-20.49,1660301785.015625
-22.28,1660301785.03125
-23.95,1660301785.046875
-25.63,1660301785.0625
-27.46,1660301785.078125
-29.5,1660301785.09375
-31.6,1660301785.109375
-33.37,1660301785.125
-34.32,1660301785.140625
-34.01,1660301785.15625
-32.29,1660301785.171875
-29.31,1660301785.1875
-25.48,1660301785.203125
-21.3,1660301785.21875
-17.16,1660301785.234375
-13.33,1660301785.25
-9.94,1660301785.265625
-7.04,1660301785.28125
-4.67,1660301785.296875
-2.82,1660301785.3125
-1.48,1660301785.328125
-0.54,1660301785.34375
0.17,1660301785.359375
0.87,1660301785.375
1.75,1660301785.390625
2.96,1660301785.40625
4.52,1660301785.421875
6.36,1660301785.4375
8.28,1660301785.453125
10.08,1660301785.46875
11.56,1660301785.484375
12.62,1660301785.5
13.26,1660301785.515625
13.53,1660301785.53125
13.5,1660301785.546875
13.24,1660301785.5625
12.73,1660301785.578125
11.91,1660301785.59375
10.7,1660301785.609375
9.09,1660301785.625
7.12,1660301785.640625
4.91,1660301785.65625
2.62,1660301785.671875
0.37,1660301785.6875
-1.8,1660301785.703125
-3.93,1660301785.71875
-6.05,1660301785.734375
-8.19,1660301785.75
-10.26,1660301785.765625
-12.12,1660301785.78125
-13.62,1660301785.796875
-14.73,1660301785.8125
-15.55,1660301785.828125
-16.36,1660301785.84375
-17.42,1660301785.859375
-18.86,1660301785.875
-20.58,1660301785.890625
-22.19,1660301785.90625
-23.16,1660301785.921875
-22.98,1660301785.9375
-21.32,1660301785.953125
-18.15,1660301785.96875
-13.73,1660301785.984375
-8.59,1660301786.0
-3.35,1660301786.015625
1.4,1660301786.03125
5.22,1660301786.046875
7.91,1660301786.0625
9.5,1660301786.078125
10.2,1660301786.09375
10.28,1660301786.109375
10.04,1660301786.125
9.66,1660301786.140625
9.28,1660301786.15625
9.01,1660301786.171875
8.98,1660301786.1875
9.34,1660301786.203125
10.15,1660301786.21875
11.39,1660301786.234375
12.86,1660301786.25
14.26,1660301786.265625
15.31,1660301786.28125
15.86,1660301786.296875
15.92,1660301786.3125
15.61,1660301786.328125
15.12,1660301786.34375
14.58,1660301786.359375
14.01,1660301786.375
13.39,1660301786.390625
12.65,1660301786.40625
11.8,1660301786.421875
10.88,1660301786.4375
9.98,1660301786.453125
9.19,1660301786.46875
8.55,1660301786.484375
8.05,1660301786.5
7.66,1660301786.515625
7.27,1660301786.53125
6.74,1660301786.546875
5.91,1660301786.5625
4.62,1660301786.578125
2.77,1660301786.59375
0.37,1660301786.609375
-2.45,1660301786.625
-5.43,1660301786.640625
-8.25,1660301786.65625
-10.58,1660301786.671875
-12.11,1660301786.6875
-12.61,1660301786.703125
-11.96,1660301786.71875
-10.17,1660301786.734375
-7.46,1660301786.75
-4.25,1660301786.765625
-0.99,1660301786.78125
1.88,1660301786.796875
4.11,1660301786.8125
5.7,1660301786.828125
6.78,1660301786.84375
7.57,1660301786.859375
8.22,1660301786.875
8.76,1660301786.890625
9.19,1660301786.90625
9.52,1660301786.921875
9.87,1660301786.9375
10.4,1660301786.953125
11.32,1660301786.96875
12.74,1660301786.984375
14.6,1660301787.0
16.69,1660301787.015625
18.69,1660301787.03125
20.22,1660301787.046875
20.99,1660301787.0625
20.87,1660301787.078125
19.92,1660301787.09375
18.37,1660301787.109375
16.53,1660301787.125
14.62,1660301787.140625
12.77,1660301787.15625
10.98,1660301787.171875
9.19,1660301787.1875
7.39,1660301787.203125
5.64,1660301787.21875
3.99,1660301787.234375
2.5,1660301787.25
1.15,1660301787.265625
-0.06,1660301787.28125
-1.17,1660301787.296875
-2.26,1660301787.3125
-3.43,1660301787.328125
-4.88,1660301787.34375
-6.85,1660301787.359375
-9.51,1660301787.375
-12.79,1660301787.390625
-16.34,1660301787.40625
-19.52,1660301787.421875
-21.66,1660301787.4375
-22.24,1660301787.453125
-21.14,1660301787.46875
-18.65,1660301787.484375
-15.38,1660301787.5
-12.03,1660301787.515625
-9.19,1660301787.53125
-7.17,1660301787.546875
-6.01,1660301787.5625
-5.56,1660301787.578125
-5.5,1660301787.59375
-5.51,1660301787.609375
-5.28,1660301787.625
-4.6,1660301787.640625
-3.4,1660301787.65625
-1.77,1660301787.671875
0.07,1660301787.6875
1.88,1660301787.703125
3.46,1660301787.71875
4.79,1660301787.734375
5.97,1660301787.75
7.15,1660301787.765625
8.33,1660301787.78125
9.32,1660301787.796875
9.78,1660301787.8125
9.38,1660301787.828125
7.98,1660301787.84375
5.73,1660301787.859375
3.08,1660301787.875
0.51,1660301787.890625
-1.62,1660301787.90625
-3.23,1660301787.921875
-4.47,1660301787.9375
-5.57,1660301787.953125
-6.69,1660301787.96875
-7.82,1660301787.984375
-8.82,1660301788.0
-9.56,1660301788.015625
-10.02,1660301788.03125
-10.31,1660301788.046875
-10.65,1660301788.0625
-11.27,1660301788.078125
-12.32,1660301788.09375
-13.81,1660301788.109375
-15.6,1660301788.125
-17.43,1660301788.140625
-18.91,1660301788.15625
-19.68,1660301788.171875
-19.43,1660301788.1875
-18.03,1660301788.203125
-15.53,1660301788.21875
-12.19,1660301788.234375
-8.4,1660301788.25
-4.57,1660301788.265625
-1.07,1660301788.28125
1.89,1660301788.296875
4.2,1660301788.3125
5.87,1660301788.328125
6.96,1660301788.34375
7.54,1660301788.359375
7.68,1660301788.375
7.41,1660301788.390625
6.82,1660301788.40625
6.04,1660301788.421875
5.28,1660301788.4375
4.75,1660301788.453125
4.57,1660301788.46875
4.76,1660301788.484375
5.22,1660301788.5
5.79,1660301788.515625
6.32,1660301788.53125
6.72,1660301788.546875
6.91,1660301788.5625
6.88,1660301788.578125
6.66,1660301788.59375
6.35,1660301788.609375
6.07,1660301788.625
5.96,1660301788.640625
6.05,1660301788.65625
6.27,1660301788.671875
6.43,1660301788.6875
6.32,1660301788.703125
5.8,1660301788.71875
4.88,1660301788.734375
3.67,1660301788.75
2.39,1660301788.765625
1.22,1660301788.78125
0.24,1660301788.796875
-0.54,1660301788.8125
-1.26,1660301788.828125
-2.16,1660301788.84375
-3.5,1660301788.859375
-5.43,1660301788.875
-7.94,1660301788.890625
-10.79,1660301788.90625
-13.51,1660301788.921875
-15.61,1660301788.9375
-16.61,1660301788.953125
-16.28,1660301788.96875
-14.62,1660301788.984375
-11.85,1660301789.0
-8.36,1660301789.015625
-4.58,1660301789.03125
-0.98,1660301789.046875
2.05,1660301789.0625
4.24,1660301789.078125
5.51,1660301789.09375
6.0,1660301789.109375
6.06,1660301789.125
6.06,1660301789.140625
6.28,1660301789.15625
6.82,1660301789.171875
7.61,1660301789.1875
8.51,1660301789.203125
9.47,1660301789.21875
10.47,1660301789.234375
11.54,1660301789.25
12.65,1660301789.265625
13.65,1660301789.28125
14.32,1660301789.296875
14.47,1660301789.3125
14.01,1660301789.328125
13.01,1660301789.34375
11.62,1660301789.359375
9.98,1660301789.375
8.14,1660301789.390625
6.13,1660301789.40625
3.94,1660301789.421875
1.61,1660301789.4375
-0.73,1660301789.453125
-2.9,1660301789.46875
-4.72,1660301789.484375
-6.06,1660301789.5
-6.89,1660301789.515625
-7.33,1660301789.53125
-7.59,1660301789.546875
-7.95,1660301789.5625
-8.62,1660301789.578125
-9.69,1660301789.59375
-11.09,1660301789.609375
-12.65,1660301789.625
-14.14,1660301789.640625
-15.4,1660301789.65625
-16.25,1660301789.671875
-16.54,1660301789.6875
-16.08,1660301789.703125
-14.65,1660301789.71875
-12.19,1660301789.734375
-8.82,1660301789.75
-4.9,1660301789.765625
-0.89,1660301789.78125
2.77,1660301789.796875
5.83,1660301789.8125
8.27,1660301789.828125
10.2,1660301789.84375
11.79,1660301789.859375
13.06,1660301789.875
13.99,1660301789.890625
14.52,1660301789.90625
14.65,1660301789.921875
14.47,1660301789.9375
14.12,1660301789.953125
13.77,1660301789.96875
13.52,1660301789.984375
13.43,1660301790.0
13.48,1660301790.015625
13.6,1660301790.03125
13.66,1660301790.046875
13.53,1660301790.0625
13.11,1660301790.078125
12.37,1660301790.09375
11.44,1660301790.109375
10.54,1660301790.125
9.91,1660301790.140625
9.68,1660301790.15625
9.83,1660301790.171875
10.08,1660301790.1875
10.08,1660301790.203125
9.44,1660301790.21875
7.95,1660301790.234375
5.59,1660301790.25
2.57,1660301790.265625
-0.87,1660301790.28125
-4.47,1660301790.296875
-8.12,1660301790.3125
-11.83,1660301790.328125
-15.71,1660301790.34375
-19.79,1660301790.359375
-23.99,1660301790.375
-28.12,1660301790.390625
-31.86,1660301790.40625
-34.92,1660301790.421875
-37.0,1660301790.4375
-37.83,1660301790.453125
-37.17,1660301790.46875
-34.88,1660301790.484375
-30.97,1660301790.5
-25.73,1660301790.515625
-19.78,1660301790.53125
-13.84,1660301790.546875
-8.56,1660301790.5625
-4.22,1660301790.578125
-0.69,1660301790.59375
2.46,1660301790.609375
5.71,1660301790.625
9.35,1660301790.640625
13.34,1660301790.65625
17.43,1660301790.671875
21.25,1660301790.6875
24.55,1660301790.703125
27.14,1660301790.71875
28.93,1660301790.734375
29.86,1660301790.75
29.92,1660301790.765625
29.14,1660301790.78125
27.71,1660301790.796875
25.91,1660301790.8125
24.0,1660301790.828125
22.13,1660301790.84375
20.28,1660301790.859375
18.36,1660301790.875
16.35,1660301790.890625
14.37,1660301790.90625
12.68,1660301790.921875
11.54,1660301790.9375
11.03,1660301790.953125
11.0,1660301790.96875
11.14,1660301790.984375
11.06,1660301791.0
10.51,1660301791.015625
9.37,1660301791.03125
7.62,1660301791.046875
5.27,1660301791.0625
2.32,1660301791.078125
-1.21,1660301791.09375
-5.2,1660301791.109375
-9.43,1660301791.125
-13.64,1660301791.140625
-17.63,1660301791.15625
-21.37,1660301791.171875
-24.96,1660301791.1875
-28.52,1660301791.203125
-31.99,1660301791.21875
-35.07,1660301791.234375
-37.22,1660301791.25
-37.84,1660301791.265625
-36.57,1660301791.28125
-33.37,1660301791.296875
-28.58,1660301791.3125
-22.8,1660301791.328125
-16.73,1660301791.34375
-11.01,1660301791.359375
-6.08,1660301791.375
-2.22,1660301791.390625
0.49,1660301791.40625
2.13,1660301791.421875
2.86,1660301791.4375
2.89,1660301791.453125
2.45,1660301791.46875
1.76,1660301791.484375
1.08,1660301791.5
0.72,1660301791.515625
1.0,1660301791.53125
2.15,1660301791.546875
4.19,1660301791.5625
6.83,1660301791.578125
9.59,1660301791.59375
11.96,1660301791.609375
13.62,1660301791.625
14.52,1660301791.640625
14.86,1660301791.65625
14.98,1660301791.671875
15.16,1660301791.6875
15.56,1660301791.703125
16.2,1660301791.71875
16.98,1660301791.734375
17.71,1660301791.75
18.19,1660301791.765625
18.17,1660301791.78125
17.48,1660301791.796875
16.06,1660301791.8125
14.01,1660301791.828125
11.56,1660301791.84375
8.96,1660301791.859375
6.37,1660301791.875
3.8,1660301791.890625
1.16,1660301791.90625
-1.64,1660301791.921875
-4.63,1660301791.9375
-7.67,1660301791.953125
-10.51,1660301791.96875
-12.79,1660301791.984375
-14.15,1660301792.0
-14.33,1660301792.015625
-13.25,1660301792.03125
-11.0,1660301792.046875
-7.87,1660301792.0625
-4.23,1660301792.078125
-0.51,1660301792.09375
2.95,1660301792.109375
5.93,1660301792.125
8.33,1660301792.140625
10.12,1660301792.15625
11.3,1660301792.171875
11.85,1660301792.1875
11.73,1660301792.203125
10.96,1660301792.21875
9.59,1660301792.234375
7.77,1660301792.25
5.74,1660301792.265625
3.8,1660301792.28125
2.23,1660301792.296875
1.2,1660301792.3125
0.74,1660301792.328125
0.72,1660301792.34375
0.93,1660301792.359375
1.05,1660301792.375
0.89,1660301792.390625
0.32,1660301792.40625
-0.56,1660301792.421875
-1.57,1660301792.4375
-2.45,1660301792.453125
-2.98,1660301792.46875
-3.05,1660301792.484375
-2.67,1660301792.5
-1.93,1660301792.515625
-1.04,1660301792.53125
-0.21,1660301792.546875
0.39,1660301792.5625
0.61,1660301792.578125
0.38,1660301792.59375
-0.32,1660301792.609375
-1.44,1660301792.625
-2.89,1660301792.640625
-4.57,1660301792.65625
-6.45,1660301792.671875
-8.51,1660301792.6875
-10.76,1660301792.703125
-13.15,1660301792.71875
-15.5,1660301792.734375
-17.45,1660301792.75
-18.56,1660301792.765625
-18.41,1660301792.78125
-16.78,1660301792.796875
-13.79,1660301792.8125
-9.93,1660301792.828125
-5.92,1660301792.84375
-2.42,1660301792.859375
0.18,1660301792.875
1.88,1660301792.890625
2.97,1660301792.90625
3.87,1660301792.921875
4.83,1660301792.9375
5.9,1660301792.953125
6.93,1660301792.96875
7.74,1660301792.984375
8.26,1660301793.0
8.61,1660301793.015625
8.96,1660301793.03125
9.48,1660301793.046875
10.22,1660301793.0625
11.11,1660301793.078125
12.01,1660301793.09375
12.78,1660301793.109375
13.33,1660301793.125
13.65,1660301793.140625
13.75,1660301793.15625
13.65,1660301793.171875
13.35,1660301793.1875
12.89,1660301793.203125
12.27,1660301793.21875
11.59,1660301793.234375
10.95,1660301793.25
10.52,1660301793.265625
10.42,1660301793.28125
10.68,1660301793.296875
11.13,1660301793.3125
11.46,1660301793.328125
11.22,1660301793.34375
10.0,1660301793.359375
7.59,1660301793.375
4.06,1660301793.390625
-0.24,1660301793.40625
-4.88,1660301793.421875
-9.46,1660301793.4375
-13.81,1660301793.453125
-17.94,1660301793.46875
-21.99,1660301793.484375
-25.97,1660301793.5
-29.7,1660301793.515625
-32.75,1660301793.53125
-34.64,1660301793.546875
-35.03,1660301793.5625
-33.79,1660301793.578125
-31.14,1660301793.59375
-27.54,1660301793.609375
-23.53,1660301793.625
-19.6,1660301793.640625
-16.02,1660301793.65625
-12.92,1660301793.671875
-10.23,1660301793.6875
-7.82,1660301793.703125
-5.58,1660301793.71875
-3.46,1660301793.734375
-1.47,1660301793.75
0.35,1660301793.765625
2.04,1660301793.78125
3.73,1660301793.796875
5.7,1660301793.8125
8.18,1660301793.828125
11.24,1660301793.84375
14.67,1660301793.859375
17.99,1660301793.875
20.59,1660301793.890625
21.98,1660301793.90625
21.91,1660301793.921875
20.46,1660301793.9375
17.95,1660301793.953125
14.86,1660301793.96875
11.65,1660301793.984375
8.74,1660301794.0
6.41,1660301794.015625
4.81,1660301794.03125
3.95,1660301794.046875
3.7,1660301794.0625
3.86,1660301794.078125
4.26,1660301794.09375
4.79,1660301794.109375
5.4,1660301794.125
6.05,1660301794.140625
6.61,1660301794.15625
6.86,1660301794.171875
6.56,1660301794.1875
5.49,1660301794.203125
3.6,1660301794.21875
1.01,1660301794.234375
-2.03,1660301794.25
-5.14,1660301794.265625
-7.89,1660301794.28125
-9.82,1660301794.296875
-10.54,1660301794.3125
-9.85,1660301794.328125
-7.84,1660301794.34375
-4.99,1660301794.359375
-2.02,1660301794.375
0.36,1660301794.390625
1.64,1660301794.40625
1.76,1660301794.421875
0.95,1660301794.4375
-0.41,1660301794.453125
-2.14,1660301794.46875
-4.24,1660301794.484375
-6.88,1660301794.5
-10.09,1660301794.515625
-13.54,1660301794.53125
-16.59,1660301794.546875
-18.54,1660301794.5625
-18.94,1660301794.578125
-17.81,1660301794.59375
-15.6,1660301794.609375
-12.94,1660301794.625
-10.36,1660301794.640625
-8.16,1660301794.65625
-6.4,1660301794.671875
-5.06,1660301794.6875
-4.12,1660301794.703125
-3.65,1660301794.71875
-3.7,1660301794.734375
-4.21,1660301794.75
-5.07,1660301794.765625
-6.1,1660301794.78125
-7.17,1660301794.796875
-8.23,1660301794.8125
-9.31,1660301794.828125
-10.38,1660301794.84375
-11.36,1660301794.859375
-12.1,1660301794.875
-12.46,1660301794.890625
-12.36,1660301794.90625
-11.92,1660301794.921875
-11.42,1660301794.9375
-11.23,1660301794.953125
-11.68,1660301794.96875
-12.9,1660301794.984375
-14.75,1660301795.0
-16.85,1660301795.015625
-18.64,1660301795.03125
-19.68,1660301795.046875
-19.66,1660301795.0625
-18.6,1660301795.078125
-16.69,1660301795.09375
-14.3,1660301795.109375
-11.76,1660301795.125
-9.35,1660301795.140625
-7.21,1660301795.15625
-5.41,1660301795.171875
-3.91,1660301795.1875
-2.64,1660301795.203125
-1.48,1660301795.21875
-0.31,1660301795.234375
1.0,1660301795.25
2.62,1660301795.265625
4.67,1660301795.28125
7.22,1660301795.296875
10.27,1660301795.3125
13.69,1660301795.328125
17.34,1660301795.34375
21.0,1660301795.359375
24.46,1660301795.375
27.45,1660301795.390625
29.68,1660301795.40625
30.84,1660301795.421875
30.78,1660301795.4375
29.53,1660301795.453125
27.43,1660301795.46875
24.99,1660301795.484375
22.75,1660301795.5
21.11,1660301795.515625
20.24,1660301795.53125
20.08,1660301795.546875
20.51,1660301795.5625
21.44,1660301795.578125
22.87,1660301795.59375
24.81,1660301795.609375
27.25,1660301795.625
30.07,1660301795.640625
33.06,1660301795.65625
35.97,1660301795.671875
38.55,1660301795.6875
40.66,1660301795.703125
42.19,1660301795.71875
43.13,1660301795.734375
43.47,1660301795.75
43.25,1660301795.765625
42.5,1660301795.78125
41.33,1660301795.796875
39.89,1660301795.8125
38.4,1660301795.828125
37.09,1660301795.84375
36.04,1660301795.859375
35.18,1660301795.875
34.27,1660301795.890625
33.01,1660301795.90625
31.17,1660301795.921875
28.73,1660301795.9375
25.86,1660301795.953125
22.78,1660301795.96875
19.61,1660301795.984375
16.15,1660301796.0
11.99,1660301796.015625
6.65,1660301796.03125
-0.01,1660301796.046875
-7.53,1660301796.0625
-14.78,1660301796.078125
-20.2,1660301796.09375
-22.31,1660301796.109375
-20.23,1660301796.125
-14.05,1660301796.140625
-4.8,1660301796.15625
5.83,1660301796.171875
15.96,1660301796.1875
23.93,1660301796.203125
28.59,1660301796.21875
29.39,1660301796.234375
26.36,1660301796.25
20.02,1660301796.265625
11.37,1660301796.28125
1.6,1660301796.296875
-8.05,1660301796.3125
-16.66,1660301796.328125
-23.85,1660301796.34375
-29.87,1660301796.359375
-35.49,1660301796.375
-41.76,1660301796.390625
-49.59,1660301796.40625
-59.44,1660301796.421875
-71.01,1660301796.4375
-83.24,1660301796.453125
-94.5,1660301796.46875
-103.02,1660301796.484375
-107.41,1660301796.5
-107.09,1660301796.515625
-102.4,1660301796.53125
-94.41,1660301796.546875
-84.5,1660301796.5625
-73.97,1660301796.578125
-63.75,1660301796.59375
-54.45,1660301796.609375
-46.42,1660301796.625
-39.91,1660301796.640625
-35.02,1660301796.65625
-31.61,1660301796.671875
-29.28,1660301796.6875
-27.41,1660301796.703125
-25.39,1660301796.71875
-22.82,1660301796.734375
-19.64,1660301796.75
-16.11,1660301796.765625
-12.57,1660301796.78125
-9.25,1660301796.796875
-6.19,1660301796.8125
-3.26,1660301796.828125
-0.36,1660301796.84375
2.51,1660301796.859375
5.19,1660301796.875
7.44,1660301796.890625
9.03,1660301796.90625
9.87,1660301796.921875
9.95,1660301796.9375
9.4,1660301796.953125
8.39,1660301796.96875
7.14,1660301796.984375
5.88,1660301797.0
4.79,1660301797.015625
3.89,1660301797.03125
3.07,1660301797.046875
2.12,1660301797.0625
0.87,1660301797.078125
-0.62,1660301797.09375
-2.14,1660301797.109375
-3.35,1660301797.125
-4.04,1660301797.140625
-4.25,1660301797.15625
-4.35,1660301797.171875
-4.81,1660301797.1875
-6.02,1660301797.203125
-8.08,1660301797.21875
-10.74,1660301797.234375
-13.56,1660301797.25
-16.01,1660301797.265625
-17.68,1660301797.28125
-18.28,1660301797.296875
-17.73,1660301797.3125
-16.04,1660301797.328125
-13.36,1660301797.34375
-9.96,1660301797.359375
-6.13,1660301797.375
-2.21,1660301797.390625
1.52,1660301797.40625
4.88,1660301797.421875
7.82,1660301797.4375
10.35,1660301797.453125
12.55,1660301797.46875
14.48,1660301797.484375
16.17,1660301797.5
17.63,1660301797.515625
18.83,1660301797.53125
19.7,1660301797.546875
20.18,1660301797.5625
20.29,1660301797.578125
20.16,1660301797.59375
20.03,1660301797.609375
20.12,1660301797.625
20.53,1660301797.640625
21.19,1660301797.65625
21.8,1660301797.671875
22.02,1660301797.6875
21.64,1660301797.703125
20.65,1660301797.71875
19.26,1660301797.734375
17.75,1660301797.75
16.3,1660301797.765625
14.93,1660301797.78125
13.5,1660301797.796875
11.89,1660301797.8125
10.11,1660301797.828125
8.35,1660301797.84375
6.84,1660301797.859375
5.74,1660301797.875
4.94,1660301797.890625
4.16,1660301797.90625
3.03,1660301797.921875
1.27,1660301797.9375
-1.17,1660301797.953125
-4.15,1660301797.96875
-7.42,1660301797.984375
-10.76,1660301798.0
-13.98,1660301798.015625
-16.88,1660301798.03125
-19.18,1660301798.046875
-20.53,1660301798.0625
-20.59,1660301798.078125
-19.19,1660301798.09375
-16.46,1660301798.109375
-12.81,1660301798.125
-8.81,1660301798.140625
-4.97,1660301798.15625
-1.62,1660301798.171875
1.12,1660301798.1875
3.28,1660301798.203125
4.98,1660301798.21875
6.32,1660301798.234375
7.39,1660301798.25
8.31,1660301798.265625
9.23,1660301798.28125
10.33,1660301798.296875
11.73,1660301798.3125
13.48,1660301798.328125
15.5,1660301798.34375
17.58,1660301798.359375
19.38,1660301798.375
20.58,1660301798.390625
20.95,1660301798.40625
20.46,1660301798.421875
19.3,1660301798.4375
17.82,1660301798.453125
16.37,1660301798.46875
15.2,1660301798.484375
14.34,1660301798.5
13.65,1660301798.515625
12.9,1660301798.53125
11.88,1660301798.546875
10.54,1660301798.5625
8.87,1660301798.578125
6.99,1660301798.59375
4.98,1660301798.609375
2.95,1660301798.625
1.03,1660301798.640625
-0.65,1660301798.65625
-1.97,1660301798.671875
-2.9,1660301798.6875
-3.56,1660301798.703125
-4.21,1660301798.71875
-5.18,1660301798.734375
-6.67,1660301798.75
-8.72,1660301798.765625
-11.02,1660301798.78125
-13.07,1660301798.796875
-14.29,1660301798.8125
-14.23,1660301798.828125
-12.72,1660301798.84375
-9.91,1660301798.859375
-6.18,1660301798.875
-2.0,1660301798.890625
2.16,1660301798.90625
5.96,1660301798.921875
9.16,1660301798.9375
11.59,1660301798.953125
13.15,1660301798.96875
13.85,1660301798.984375
13.83,1660301799.0
13.36,1660301799.015625
12.82,1660301799.03125
12.51,1660301799.046875
12.61,1660301799.0625
13.07,1660301799.078125
13.75,1660301799.09375
14.48,1660301799.109375
15.13,1660301799.125
15.65,1660301799.140625
16.03,1660301799.15625
16.26,1660301799.171875
16.32,1660301799.1875
16.24,1660301799.203125
16.1,1660301799.21875
16.05,1660301799.234375
16.13,1660301799.25
16.28,1660301799.265625
16.25,1660301799.28125
15.73,1660301799.296875
14.47,1660301799.3125
12.44,1660301799.328125
9.85,1660301799.34375
7.01,1660301799.359375
4.3,1660301799.375
1.94,1660301799.390625
0.04,1660301799.40625
-1.42,1660301799.421875
-2.47,1660301799.4375
-3.21,1660301799.453125
-3.81,1660301799.46875
-4.49,1660301799.484375
-5.48,1660301799.5
-6.88,1660301799.515625
-8.6,1660301799.53125
-10.24,1660301799.546875
-11.25,1660301799.5625
-11.08,1660301799.578125
-9.41,1660301799.59375
-6.28,1660301799.609375
-2.16,1660301799.625
2.26,1660301799.640625
6.21,1660301799.65625
9.01,1660301799.671875
10.26,1660301799.6875
9.86,1660301799.703125
8.0,1660301799.71875
5.12,1660301799.734375
1.78,1660301799.75
-1.44,1660301799.765625
-4.05,1660301799.78125
-5.69,1660301799.796875
-6.2,1660301799.8125
-5.53,1660301799.828125
-3.77,1660301799.84375
-1.16,1660301799.859375
1.95,1660301799.875
5.12,1660301799.890625
7.85,1660301799.90625
9.71,1660301799.921875
10.37,1660301799.9375
9.73,1660301799.953125
7.93,1660301799.96875
5.27,1660301799.984375
2.17,1660301800.0
-0.98,1660301800.015625
-3.86,1660301800.03125
-6.29,1660301800.046875
-8.24,1660301800.0625
-9.72,1660301800.078125
-10.79,1660301800.09375
-11.45,1660301800.109375
-11.71,1660301800.125
-11.56,1660301800.140625
-11.07,1660301800.15625
-10.38,1660301800.171875
-9.71,1660301800.1875
-9.35,1660301800.203125
-9.5,1660301800.21875
-10.36,1660301800.234375
-12.04,1660301800.25
-14.59,1660301800.265625
-17.94,1660301800.28125
-21.91,1660301800.296875
-26.15,1660301800.3125
-30.21,1660301800.328125
-33.59,1660301800.34375
-35.84,1660301800.359375
-36.68,1660301800.375
-36.04,1660301800.390625
-34.05,1660301800.40625
-31.02,1660301800.421875
-27.32,1660301800.4375
-23.34,1660301800.453125
-19.41,1660301800.46875
-15.76,1660301800.484375
-12.53,1660301800.5
-9.77,1660301800.515625
-7.41,1660301800.53125
-5.39,1660301800.546875
-3.68,1660301800.5625
-2.31,1660301800.578125
-1.34,1660301800.59375
-0.88,1660301800.609375
-0.88,1660301800.625
-1.22,1660301800.640625
-1.59,1660301800.65625
-1.65,1660301800.671875
-1.08,1660301800.6875
0.32,1660301800.703125
2.58,1660301800.71875
5.61,1660301800.734375
9.27,1660301800.75
13.38,1660301800.765625
17.71,1660301800.78125
21.92,1660301800.796875
25.62,1660301800.8125
28.34,1660301800.828125
29.74,1660301800.84375
29.61,1660301800.859375
27.95,1660301800.875
24.91,1660301800.890625
20.84,1660301800.90625
16.17,1660301800.921875
11.49,1660301800.9375
7.37,1660301800.953125
4.35,1660301800.96875
2.73,1660301800.984375
2.45,1660301801.0
3.08,1660301801.015625
4.0,1660301801.03125
4.57,1660301801.046875
4.38,1660301801.0625
3.34,1660301801.078125
1.65,1660301801.09375
-0.33,1660301801.109375
-2.17,1660301801.125
-3.48,1660301801.140625
-3.97,1660301801.15625
-3.41,1660301801.171875
-1.78,1660301801.1875
0.74,1660301801.203125
3.78,1660301801.21875
6.87,1660301801.234375
9.53,1660301801.25
11.45,1660301801.265625
12.59,1660301801.28125
13.06,1660301801.296875
13.07,1660301801.3125
12.8,1660301801.328125
12.29,1660301801.34375
11.48,1660301801.359375
10.32,1660301801.375
8.84,1660301801.390625
7.2,1660301801.40625
5.71,1660301801.421875
4.67,1660301801.4375
4.28,1660301801.453125
4.54,1660301801.46875
5.28,1660301801.484375
6.21,1660301801.5
7.1,1660301801.515625
7.82,1660301801.53125
8.39,1660301801.546875
8.91,1660301801.5625
9.39,1660301801.578125
9.77,1660301801.59375
9.82,1660301801.609375
9.36,1660301801.625
8.33,1660301801.640625
6.83,1660301801.65625
5.1,1660301801.671875
3.39,1660301801.6875
1.84,1660301801.703125
0.45,1660301801.71875
-0.87,1660301801.734375
-2.27,1660301801.75
-3.84,1660301801.765625
-5.59,1660301801.78125
-7.46,1660301801.796875
-9.39,1660301801.8125
-11.29,1660301801.828125
-13.13,1660301801.84375
-14.89,1660301801.859375
-16.53,1660301801.875
-17.96,1660301801.890625
-19.04,1660301801.90625
-19.63,1660301801.921875
-19.62,1660301801.9375
-18.93,1660301801.953125
-17.62,1660301801.96875
-15.75,1660301801.984375
-13.49,1660301802.0
-10.97,1660301802.015625
-8.43,1660301802.03125
-6.06,1660301802.046875
-4.05,1660301802.0625
-2.47,1660301802.078125
-1.28,1660301802.09375
-0.28,1660301802.109375
0.77,1660301802.125
2.07,1660301802.140625
3.74,1660301802.15625
5.8,1660301802.171875
8.18,1660301802.1875
10.78,1660301802.203125
13.51,1660301802.21875
16.29,1660301802.234375
19.02,1660301802.25
21.59,1660301802.265625
23.89,1660301802.28125
25.84,1660301802.296875
27.41,1660301802.3125
28.59,1660301802.328125
29.42,1660301802.34375
29.99,1660301802.359375
30.4,1660301802.375
30.77,1660301802.390625
31.16,1660301802.40625
31.59,1660301802.421875
31.99,1660301802.4375
32.32,1660301802.453125
32.5,1660301802.46875
32.59,1660301802.484375
32.68,1660301802.5
32.97,1660301802.515625
33.6,1660301802.53125
34.7,1660301802.546875
36.29,1660301802.5625
38.3,1660301802.578125
40.63,1660301802.59375
43.1,1660301802.609375
45.58,1660301802.625
47.94,1660301802.640625
50.13,1660301802.65625
52.21,1660301802.671875
54.36,1660301802.6875
56.81,1660301802.703125
59.7,1660301802.71875
62.85,1660301802.734375
65.64,1660301802.75
67.06,1660301802.765625
65.99,1660301802.78125
61.58,1660301802.796875
53.58,1660301802.8125
42.45,1660301802.828125
29.18,1660301802.84375
15.01,1660301802.859375
1.0,1660301802.875
-12.1,1660301802.890625
-23.95,1660301802.90625
-34.48,1660301802.921875
-43.88,1660301802.9375
-52.38,1660301802.953125
-60.33,1660301802.96875
-67.97,1660301802.984375
-75.39,1660301803.0
-82.43,1660301803.015625
-88.67,1660301803.03125
-93.54,1660301803.046875
-96.55,1660301803.0625
-97.41,1660301803.078125
-96.16,1660301803.09375
-93.09,1660301803.109375
-88.73,1660301803.125
-83.69,1660301803.140625
-78.63,1660301803.15625
-74.14,1660301803.171875
-70.64,1660301803.1875
-68.3,1660301803.203125
-66.94,1660301803.21875
-66.08,1660301803.234375
-65.11,1660301803.25
-63.55,1660301803.265625
-61.23,1660301803.28125
-58.35,1660301803.296875
-55.37,1660301803.3125
-52.74,1660301803.328125
-50.72,1660301803.34375
-49.22,1660301803.359375
-47.98,1660301803.375
-46.69,1660301803.390625
-45.22,1660301803.40625
-43.67,1660301803.421875
-42.28,1660301803.4375
-41.3,1660301803.453125
-40.8,1660301803.46875
-40.63,1660301803.484375
-40.51,1660301803.5
-40.08,1660301803.515625
-38.98,1660301803.53125
-36.91,1660301803.546875
-33.67,1660301803.5625
-29.2,1660301803.578125
-23.66,1660301803.59375
-17.44,1660301803.609375
-11.12,1660301803.625
-5.31,1660301803.640625
-0.45,1660301803.65625
3.24,1660301803.671875
5.83,1660301803.6875
7.52,1660301803.703125
8.57,1660301803.71875
9.2,1660301803.734375
9.56,1660301803.75
9.78,1660301803.765625
9.98,1660301803.78125
10.27,1660301803.796875
10.73,1660301803.8125
11.39,1660301803.828125
12.26,1660301803.84375
13.23,1660301803.859375
14.23,1660301803.875
15.18,1660301803.890625
16.02,1660301803.90625
16.72,1660301803.921875
17.23,1660301803.9375
17.52,1660301803.953125
17.57,1660301803.96875
17.34,1660301803.984375
16.88,1660301804.0
16.27,1660301804.015625
15.66,1660301804.03125
15.2,1660301804.046875
15.03,1660301804.0625
15.22,1660301804.078125
15.7,1660301804.09375
16.32,1660301804.109375
16.89,1660301804.125
17.16,1660301804.140625
16.9,1660301804.15625
15.95,1660301804.171875
14.2,1660301804.1875
11.68,1660301804.203125
8.54,1660301804.21875
5.12,1660301804.234375
1.82,1660301804.25
-0.99,1660301804.265625
-2.96,1660301804.28125
-3.93,1660301804.296875
-3.85,1660301804.3125
-2.78,1660301804.328125
-0.81,1660301804.34375
1.98,1660301804.359375
5.44,1660301804.375
9.38,1660301804.390625
13.48,1660301804.40625
17.34,1660301804.421875
20.53,1660301804.4375
22.74,1660301804.453125
23.84,1660301804.46875
23.95,1660301804.484375
23.29,1660301804.5
22.21,1660301804.515625
20.96,1660301804.53125
19.77,1660301804.546875
18.78,1660301804.5625
18.18,1660301804.578125
18.14,1660301804.59375
18.76,1660301804.609375
19.98,1660301804.625
21.46,1660301804.640625
22.68,1660301804.65625
23.08,1660301804.671875
22.31,1660301804.6875
20.34,1660301804.703125
17.5,1660301804.71875
14.34,1660301804.734375
11.4,1660301804.75
9.06,1660301804.765625
7.39,1660301804.78125
6.24,1660301804.796875
5.35,1660301804.8125
4.43,1660301804.828125
3.32,1660301804.84375
1.95,1660301804.859375
0.34,1660301804.875
-1.44,1660301804.890625
-3.32,1660301804.90625
-5.2,1660301804.921875
-6.95,1660301804.9375
-8.45,1660301804.953125
-9.63,1660301804.96875
-10.57,1660301804.984375
-11.53,1660301805.0
-12.86,1660301805.015625
-14.89,1660301805.03125
-17.72,1660301805.046875
-21.14,1660301805.0625
-24.62,1660301805.078125
-27.44,1660301805.09375
-28.96,1660301805.109375
-28.75,1660301805.125
-26.72,1660301805.140625
-23.15,1660301805.15625
-18.59,1660301805.171875
-13.66,1660301805.1875
-8.94,1660301805.203125
-4.79,1660301805.21875
-1.34,1660301805.234375
1.47,1660301805.25
3.88,1660301805.265625
6.12,1660301805.28125
8.36,1660301805.296875
10.69,1660301805.3125
13.11,1660301805.328125
15.52,1660301805.34375
17.76,1660301805.359375
19.62,1660301805.375
20.9,1660301805.390625
21.43,1660301805.40625
21.15,1660301805.421875
20.13,1660301805.4375
18.55,1660301805.453125
16.66,1660301805.46875
14.7,1660301805.484375
12.92,1660301805.5
11.47,1660301805.515625
10.45,1660301805.53125
9.83,1660301805.546875
9.52,1660301805.5625
9.37,1660301805.578125
9.24,1660301805.59375
9.06,1660301805.609375
8.79,1660301805.625
8.44,1660301805.640625
8.04,1660301805.65625
7.57,1660301805.671875
7.02,1660301805.6875
6.38,1660301805.703125
5.75,1660301805.71875
5.24,1660301805.734375
4.94,1660301805.75
4.81,1660301805.765625
4.66,1660301805.78125
4.12,1660301805.796875
2.82,1660301805.8125
0.55,1660301805.828125
-2.69,1660301805.84375
-6.57,1660301805.859375
-10.57,1660301805.875
-14.08,1660301805.890625
-16.56,1660301805.90625
-17.68,1660301805.921875
-17.37,1660301805.9375
-15.81,1660301805.953125
-13.37,1660301805.96875
-10.51,1660301805.984375
-7.6,1660301806.0
-4.92,1660301806.015625
-2.55,1660301806.03125
-0.49,1660301806.046875
1.3,1660301806.0625
2.81,1660301806.078125
4.03,1660301806.09375
5.01,1660301806.109375
5.91,1660301806.125
6.99,1660301806.140625
8.48,1660301806.15625
10.4,1660301806.171875
12.62,1660301806.1875
14.77,1660301806.203125
16.5,1660301806.21875
17.49,1660301806.234375
17.6,1660301806.25
16.84,1660301806.265625
15.32,1660301806.28125
13.2,1660301806.296875
10.67,1660301806.3125
7.86,1660301806.328125
4.86,1660301806.34375
1.67,1660301806.359375
-1.72,1660301806.375
-5.34,1660301806.390625
-9.11,1660301806.40625
-12.82,1660301806.421875
-16.2,1660301806.4375
-18.93,1660301806.453125
-20.77,1660301806.46875
-21.61,1660301806.484375
-21.49,1660301806.5
-20.59,1660301806.515625
-19.19,1660301806.53125
-17.64,1660301806.546875
-16.27,1660301806.5625
-15.32,1660301806.578125
-14.86,1660301806.59375
-14.76,1660301806.609375
-14.72,1660301806.625
-14.38,1660301806.640625
-13.4,1660301806.65625
-11.63,1660301806.671875
-9.07,1660301806.6875
-5.9,1660301806.703125
-2.38,1660301806.71875
1.18,1660301806.734375
4.5,1660301806.75
7.39,1660301806.765625
9.71,1660301806.78125
11.37,1660301806.796875
12.34,1660301806.8125
12.61,1660301806.828125
12.19,1660301806.84375
11.15,1660301806.859375
9.7,1660301806.875
8.08,1660301806.890625
6.68,1660301806.90625
5.75,1660301806.921875
5.47,1660301806.9375
5.82,1660301806.953125
6.59,1660301806.96875
7.48,1660301806.984375
8.25,1660301807.0
8.8,1660301807.015625
9.15,1660301807.03125
9.41,1660301807.046875
9.69,1660301807.0625
9.98,1660301807.078125
10.18,1660301807.09375
10.12,1660301807.109375
9.61,1660301807.125
8.53,1660301807.140625
6.89,1660301807.15625
4.81,1660301807.171875
2.48,1660301807.1875
0.19,1660301807.203125
-1.83,1660301807.21875
-3.42,1660301807.234375
-4.57,1660301807.25
-5.47,1660301807.265625
-6.4,1660301807.28125
-7.75,1660301807.296875
-9.82,1660301807.3125
-12.71,1660301807.328125
-16.32,1660301807.34375
-20.3,1660301807.359375
-24.15,1660301807.375
-27.31,1660301807.390625
-29.22,1660301807.40625
-29.52,1660301807.421875
-28.02,1660301807.4375
-24.87,1660301807.453125
-20.46,1660301807.46875
-15.38,1660301807.484375
-10.24,1660301807.5
-5.56,1660301807.515625
-1.63,1660301807.53125
1.52,1660301807.546875
4.01,1660301807.5625
6.04,1660301807.578125
7.8,1660301807.59375
9.43,1660301807.609375
11.06,1660301807.625
12.77,1660301807.640625
14.65,1660301807.65625
16.7,1660301807.671875
18.84,1660301807.6875
20.81,1660301807.703125
22.29,1660301807.71875
22.9,1660301807.734375
22.39,1660301807.75
20.71,1660301807.765625
17.98,1660301807.78125
14.56,1660301807.796875
10.86,1660301807.8125
7.29,1660301807.828125
4.18,1660301807.84375
1.69,1660301807.859375
-0.2,1660301807.875
-1.64,1660301807.890625
-2.83,1660301807.90625
-3.93,1660301807.921875
-5.02,1660301807.9375
-6.04,1660301807.953125
-6.95,1660301807.96875
-7.74,1660301807.984375
-8.54,1660301808.0
-9.57,1660301808.015625
-11.09,1660301808.03125
-13.22,1660301808.046875
-15.94,1660301808.0625
-19.05,1660301808.078125
-22.26,1660301808.09375
-25.3,1660301808.109375
-27.92,1660301808.125
-29.88,1660301808.140625
-30.89,1660301808.15625
-30.67,1660301808.171875
-29.01,1660301808.1875
-25.91,1660301808.203125
-21.62,1660301808.21875
-16.7,1660301808.234375
-11.8,1660301808.25
-7.51,1660301808.265625
-4.17,1660301808.28125
-1.76,1660301808.296875
-0.04,1660301808.3125
1.37,1660301808.328125
2.8,1660301808.34375
4.46,1660301808.359375
6.36,1660301808.375
8.45,1660301808.390625
10.62,1660301808.40625
12.79,1660301808.421875
14.91,1660301808.4375
16.98,1660301808.453125
19.0,1660301808.46875
20.92,1660301808.484375
22.66,1660301808.5
24.05,1660301808.515625
24.9,1660301808.53125
25.02,1660301808.546875
24.36,1660301808.5625
22.95,1660301808.578125
20.97,1660301808.59375
18.6,1660301808.609375
16.0,1660301808.625
13.27,1660301808.640625
10.42,1660301808.65625
7.46,1660301808.671875
4.45,1660301808.6875
1.54,1660301808.703125
-1.1,1660301808.71875
-3.3,1660301808.734375
-5.04,1660301808.75
-6.41,1660301808.765625
-7.67,1660301808.78125
-9.09,1660301808.796875
-10.94,1660301808.8125
-13.3,1660301808.828125
-16.12,1660301808.84375
-19.19,1660301808.859375
-22.23,1660301808.875
-24.92,1660301808.890625
-27.01,1660301808.90625
-28.24,1660301808.921875
-28.42,1660301808.9375
-27.42,1660301808.953125
-25.23,1660301808.96875
-22.0,1660301808.984375
-18.03,1660301809.0
-13.74,1660301809.015625
-9.55,1660301809.03125
-5.75,1660301809.046875
-2.51,1660301809.0625
0.15,1660301809.078125
2.28,1660301809.09375
3.99,1660301809.109375
5.41,1660301809.125
6.71,1660301809.140625
8.16,1660301809.15625
10.02,1660301809.171875
12.45,1660301809.1875
15.43,1660301809.203125
18.73,1660301809.21875
21.93,1660301809.234375
24.6,1660301809.25
26.51,1660301809.265625
27.69,1660301809.28125
28.42,1660301809.296875
29.03,1660301809.3125
29.7,1660301809.328125
30.39,1660301809.34375
30.87,1660301809.359375
30.84,1660301809.375
30.12,1660301809.390625
28.69,1660301809.40625
26.63,1660301809.421875
24.09,1660301809.4375
21.15,1660301809.453125
17.88,1660301809.46875
14.3,1660301809.484375
10.48,1660301809.5
6.47,1660301809.515625
2.29,1660301809.53125
-2.07,1660301809.546875
-6.6,1660301809.5625
-11.19,1660301809.578125
-15.55,1660301809.59375
-19.29,1660301809.609375
-21.97,1660301809.625
-23.23,1660301809.640625
-22.9,1660301809.65625
-21.03,1660301809.671875
-17.88,1660301809.6875
-13.84,1660301809.703125
-9.43,1660301809.71875
-5.17,1660301809.734375
-1.5,1660301809.75
1.29,1660301809.765625
3.16,1660301809.78125
4.24,1660301809.796875
4.79,1660301809.8125
5.1,1660301809.828125
5.33,1660301809.84375
5.55,1660301809.859375
5.71,1660301809.875
5.71,1660301809.890625
5.52,1660301809.90625
5.11,1660301809.921875
4.47,1660301809.9375
3.59,1660301809.953125
2.44,1660301809.96875
1.04,1660301809.984375
-0.49,1660301810.0
-1.99,1660301810.015625
-3.23,1660301810.03125
-4.1,1660301810.046875
-4.56,1660301810.0625
-4.72,1660301810.078125
-4.71,1660301810.09375
-4.63,1660301810.109375
-4.56,1660301810.125
-4.5,1660301810.140625
-4.5,1660301810.15625
-4.6,1660301810.171875
-4.85,1660301810.1875
-5.2,1660301810.203125
-5.57,1660301810.21875
-5.87,1660301810.234375
-6.12,1660301810.25
-6.5,1660301810.265625
-7.3,1660301810.28125
-8.77,1660301810.296875
-10.98,1660301810.3125
-13.73,1660301810.328125
-16.58,1660301810.34375
-19.0,1660301810.359375
-20.52,1660301810.375
-20.87,1660301810.390625
-20.0,1660301810.40625
-18.09,1660301810.421875
-15.49,1660301810.4375
-12.56,1660301810.453125
-9.66,1660301810.46875
-7.0,1660301810.484375
-4.7,1660301810.5
-2.75,1660301810.515625
-1.08,1660301810.53125
0.38,1660301810.546875
1.7,1660301810.5625
2.93,1660301810.578125
4.19,1660301810.59375
5.64,1660301810.609375
7.37,1660301810.625
9.42,1660301810.640625
11.66,1660301810.65625
13.81,1660301810.671875
15.58,1660301810.6875
16.71,1660301810.703125
17.1,1660301810.71875
16.8,1660301810.734375
15.99,1660301810.75
14.81,1660301810.765625
13.34,1660301810.78125
11.57,1660301810.796875
9.4,1660301810.8125
6.76,1660301810.828125
3.61,1660301810.84375
0.01,1660301810.859375
-3.9,1660301810.875
-7.82,1660301810.890625
-11.42,1660301810.90625
-14.31,1660301810.921875
-16.2,1660301810.9375
-17.0,1660301810.953125
-16.93,1660301810.96875
-16.42,1660301810.984375
-16.0,1660301811.0
-16.12,1660301811.015625
-16.96,1660301811.03125
-18.41,1660301811.046875
-20.1,1660301811.0625
-21.49,1660301811.078125
-22.06,1660301811.09375
-21.43,1660301811.109375
-19.47,1660301811.125
-16.34,1660301811.140625
-12.43,1660301811.15625
-8.3,1660301811.171875
-4.47,1660301811.1875
-1.35,1660301811.203125
0.91,1660301811.21875
2.36,1660301811.234375
3.18,1660301811.25
3.58,1660301811.265625
3.73,1660301811.28125
3.79,1660301811.296875
4.02,1660301811.3125
4.68,1660301811.328125
6.04,1660301811.34375
8.18,1660301811.359375
10.93,1660301811.375
13.86,1660301811.390625
16.52,1660301811.40625
18.58,1660301811.421875
20.03,1660301811.4375
21.1,1660301811.453125
22.08,1660301811.46875
23.11,1660301811.484375
24.13,1660301811.5
24.87,1660301811.515625
25.07,1660301811.53125
24.63,1660301811.546875
23.67,1660301811.5625
22.47,1660301811.578125
21.27,1660301811.59375
20.22,1660301811.609375
19.33,1660301811.625
18.52,1660301811.640625
17.7,1660301811.65625
16.79,1660301811.671875
15.67,1660301811.6875
14.22,1660301811.703125
12.27,1660301811.71875
9.62,1660301811.734375
6.12,1660301811.75
1.73,1660301811.765625
-3.44,1660301811.78125
-9.1,1660301811.796875
-14.72,1660301811.8125
-19.73,1660301811.828125
-23.52,1660301811.84375
-25.61,1660301811.859375
-25.76,1660301811.875
-23.99,1660301811.890625
-20.56,1660301811.90625
-15.91,1660301811.921875
-10.54,1660301811.9375
-4.98,1660301811.953125
0.31,1660301811.96875
4.96,1660301811.984375
8.71,1660301812.0
11.48,1660301812.015625
13.35,1660301812.03125
14.55,1660301812.046875
15.39,1660301812.0625
16.1,1660301812.078125
16.87,1660301812.09375
17.81,1660301812.109375
18.95,1660301812.125
20.34,1660301812.140625
21.88,1660301812.15625
23.43,1660301812.171875
24.68,1660301812.1875
25.29,1660301812.203125
25.0,1660301812.21875
23.72,1660301812.234375
21.64,1660301812.25
19.12,1660301812.265625
16.57,1660301812.28125
14.28,1660301812.296875
12.4,1660301812.3125
10.89,1660301812.328125
9.65,1660301812.34375
8.6,1660301812.359375
7.67,1660301812.375
6.83,1660301812.390625
5.96,1660301812.40625
4.98,1660301812.421875
3.76,1660301812.4375
2.3,1660301812.453125
0.66,1660301812.46875
-0.96,1660301812.484375
-2.37,1660301812.5
-3.52,1660301812.515625
-4.53,1660301812.53125
-5.76,1660301812.546875
-7.63,1660301812.5625
-10.44,1660301812.578125
-14.2,1660301812.59375
-18.56,1660301812.609375
-22.92,1660301812.625
-26.54,1660301812.640625
-28.83,1660301812.65625
-29.51,1660301812.671875
-28.63,1660301812.6875
-26.55,1660301812.703125
-23.73,1660301812.71875
-20.6,1660301812.734375
-17.45,1660301812.75
-14.39,1660301812.765625
-11.45,1660301812.78125
-8.66,1660301812.796875
-6.1,1660301812.8125
-3.84,1660301812.828125
-1.92,1660301812.84375
-0.27,1660301812.859375
1.23,1660301812.875
2.71,1660301812.890625
4.24,1660301812.90625
5.76,1660301812.921875
7.2,1660301812.9375
8.48,1660301812.953125
9.61,1660301812.96875
10.64,1660301812.984375
11.6,1660301813.0
12.44,1660301813.015625
13.08,1660301813.03125
13.44,1660301813.046875
13.47,1660301813.0625
13.25,1660301813.078125
12.92,1660301813.09375
12.68,1660301813.109375
12.7,1660301813.125
13.14,1660301813.140625
14.13,1660301813.15625
15.71,1660301813.171875
17.78,1660301813.1875
20.13,1660301813.203125
22.41,1660301813.21875
24.26,1660301813.234375
25.4,1660301813.25
25.73,1660301813.265625
25.37,1660301813.28125
24.57,1660301813.296875
23.6,1660301813.3125
22.7,1660301813.328125
21.94,1660301813.34375
21.25,1660301813.359375
20.43,1660301813.375
19.22,1660301813.390625
17.4,1660301813.40625
14.81,1660301813.421875
11.46,1660301813.4375
7.58,1660301813.453125
3.6,1660301813.46875
0.07,1660301813.484375
-2.46,1660301813.5
-3.62,1660301813.515625
-3.38,1660301813.53125
-2.06,1660301813.546875
-0.2,1660301813.5625
1.63,1660301813.578125
3.06,1660301813.59375
4.05,1660301813.609375
4.81,1660301813.625
5.61,1660301813.640625
6.64,1660301813.65625
7.91,1660301813.671875
9.25,1660301813.6875
10.48,1660301813.703125
11.49,1660301813.71875
12.3,1660301813.734375
12.96,1660301813.75
13.49,1660301813.765625
13.82,1660301813.78125
13.78,1660301813.796875
13.25,1660301813.8125
12.19,1660301813.828125
10.72,1660301813.84375
9.05,1660301813.859375
7.29,1660301813.875
5.46,1660301813.890625
3.45,1660301813.90625
1.13,1660301813.921875
-1.51,1660301813.9375
-4.32,1660301813.953125
-7.01,1660301813.96875
-9.24,1660301813.984375
-10.72,1660301814.0
-11.35,1660301814.015625
-11.13,1660301814.03125
-10.2,1660301814.046875
-8.81,1660301814.0625
-7.24,1660301814.078125
-5.79,1660301814.09375
-4.7,1660301814.109375
-4.1,1660301814.125
-3.98,1660301814.140625
-4.19,1660301814.15625
-4.59,1660301814.171875
-5.1,1660301814.1875
-5.77,1660301814.203125
