bvp,time
9.65,1767084708.8125
4.69,1767084708.828125
-0.67,1767084708.84375
-6.82,1767084708.859375
-13.98,1767084708.875
-21.85,1767084708.890625
-29.47,1767084708.90625
-35.23,1767084708.921875
-37.39,1767084708.9375
-34.53,1767084708.953125
-26.17,1767084708.96875
-13.01,1767084708.984375
3.15,1767084709.0
19.92,1767084709.015625
34.96,1767084709.03125
46.6,1767084709.046875
54.25,1767084709.0625
58.37,1767084709.078125
60.21,1767084709.09375
61.25,1767084709.109375
62.61,1767084709.125
64.71,1767084709.140625
67.1,1767084709.15625
68.85,1767084709.171875
68.94,1767084709.1875
66.81,1767084709.203125
62.55,1767084709.21875
56.84,1767084709.234375
50.54,1767084709.25
44.36,1767084709.265625
38.59,1767084709.28125
33.27,1767084709.296875
28.3,1767084709.3125
23.6,1767084709.328125
19.15,1767084709.34375
14.83,1767084709.359375
10.32,1767084709.375
5.22,1767084709.390625
-0.68,1767084709.40625
-7.18,1767084709.421875
-13.75,1767084709.4375
-19.72,1767084709.453125
-24.76,1767084709.46875
-29.01,1767084709.484375
-33.04,1767084709.5
-37.26,1767084709.515625
-41.42,1767084709.53125
-44.53,1767084709.546875
-45.11,1767084709.5625
-41.84,1767084709.578125
-34.23,1767084709.59375
-22.81,1767084709.609375
-8.91,1767084709.625
5.87,1767084709.640625
20.22,1767084709.65625
33.44,1767084709.671875
45.38,1767084709.6875
56.13,1767084709.703125
65.83,1767084709.71875
74.36,1767084709.734375
81.45,1767084709.75
86.86,1767084709.765625
90.52,1767084709.78125
92.72,1767084709.796875
94.0,1767084709.8125
95.09,1767084709.828125
96.67,1767084709.84375
99.24,1767084709.859375
102.99,1767084709.875
107.72,1767084709.890625
112.86,1767084709.90625
117.55,1767084709.921875
120.82,1767084709.9375
121.93,1767084709.953125
120.69,1767084709.96875
117.6,1767084709.984375
113.63,1767084710.0
109.93,1767084710.015625
107.17,1767084710.03125
105.16,1767084710.046875
102.65,1767084710.0625
97.42,1767084710.078125
86.63,1767084710.09375
67.51,1767084710.109375
38.29,1767084710.125
-0.97,1767084710.140625
-47.73,1767084710.15625
-97.23,1767084710.171875
-143.58,1767084710.1875
-181.49,1767084710.203125
-207.84,1767084710.21875
-222.49,1767084710.234375
-227.8,1767084710.25
-227.27,1767084710.265625
-223.94,1767084710.28125
-219.38,1767084710.296875
-213.53,1767084710.3125
-205.46,1767084710.328125
-194.25,1767084710.34375
-179.61,1767084710.359375
-162.08,1767084710.375
-142.67,1767084710.390625
-122.39,1767084710.40625
-102.04,1767084710.421875
-82.16,1767084710.4375
-63.13,1767084710.453125
-45.35,1767084710.46875
-29.37,1767084710.484375
-15.77,1767084710.5
-5.01,1767084710.515625
2.85,1767084710.53125
8.21,1767084710.546875
11.95,1767084710.5625
15.02,1767084710.578125
18.19,1767084710.59375
21.66,1767084710.609375
25.2,1767084710.625
28.33,1767084710.640625
30.68,1767084710.65625
32.21,1767084710.671875
33.24,1767084710.6875
34.21,1767084710.703125
35.36,1767084710.71875
36.64,1767084710.734375
37.65,1767084710.75
37.9,1767084710.765625
37.1,1767084710.78125
35.22,1767084710.796875
32.54,1767084710.8125
29.42,1767084710.828125
26.19,1767084710.84375
22.98,1767084710.859375
19.79,1767084710.875
16.49,1767084710.890625
12.95,1767084710.90625
9.14,1767084710.921875
5.09,1767084710.9375
0.87,1767084710.953125
-3.48,1767084710.96875
-7.96,1767084710.984375
-12.66,1767084711.0
-17.74,1767084711.015625
-23.39,1767084711.03125
-29.76,1767084711.046875
-36.8,1767084711.0625
-44.17,1767084711.078125
-51.02,1767084711.09375
-56.16,1767084711.109375
-58.27,1767084711.125
-56.36,1767084711.140625
-50.11,1767084711.15625
-40.11,1767084711.171875
-27.71,1767084711.1875
-14.58,1767084711.203125
-2.27,1767084711.21875
8.15,1767084711.234375
16.23,1767084711.25
21.98,1767084711.265625
25.68,1767084711.28125
27.62,1767084711.296875
28.09,1767084711.3125
27.37,1767084711.328125
25.9,1767084711.34375
24.22,1767084711.359375
22.94,1767084711.375
22.59,1767084711.390625
23.41,1767084711.40625
25.28,1767084711.421875
27.75,1767084711.4375
30.23,1767084711.453125
32.2,1767084711.46875
33.36,1767084711.484375
33.7,1767084711.5
33.38,1767084711.515625
32.57,1767084711.53125
31.3,1767084711.546875
29.42,1767084711.5625
26.72,1767084711.578125
23.03,1767084711.59375
18.36,1767084711.609375
13.0,1767084711.625
7.39,1767084711.640625
2.04,1767084711.65625
-2.65,1767084711.671875
-6.48,1767084711.6875
-9.58,1767084711.703125
-12.31,1767084711.71875
-15.2,1767084711.734375
-18.76,1767084711.75
-23.35,1767084711.765625
-29.06,1767084711.78125
-35.55,1767084711.796875
-42.13,1767084711.8125
-47.79,1767084711.828125
-51.41,1767084711.84375
-52.0,1767084711.859375
-49.02,1767084711.875
-42.49,1767084711.890625
-33.04,1767084711.90625
-21.81,1767084711.921875
-10.12,1767084711.9375
0.73,1767084711.953125
9.77,1767084711.96875
16.46,1767084711.984375
20.64,1767084712.0
22.52,1767084712.015625
22.46,1767084712.03125
20.93,1767084712.046875
18.41,1767084712.0625
15.45,1767084712.078125
12.61,1767084712.09375
10.42,1767084712.109375
9.24,1767084712.125
9.16,1767084712.140625
9.95,1767084712.15625
11.13,1767084712.171875
12.21,1767084712.1875
12.81,1767084712.203125
12.84,1767084712.21875
12.46,1767084712.234375
11.89,1767084712.25
11.25,1767084712.265625
10.43,1767084712.28125
9.13,1767084712.296875
7.03,1767084712.3125
3.93,1767084712.328125
-0.11,1767084712.34375
-4.72,1767084712.359375
-9.42,1767084712.375
-13.75,1767084712.390625
-17.45,1767084712.40625
-20.61,1767084712.421875
-23.62,1767084712.4375
-27.02,1767084712.453125
-31.28,1767084712.46875
-36.64,1767084712.484375
-42.9,1767084712.5
-49.36,1767084712.515625
-54.92,1767084712.53125
-58.33,1767084712.546875
-58.51,1767084712.5625
-54.86,1767084712.578125
-47.45,1767084712.59375
-37.03,1767084712.609375
-24.82,1767084712.625
-12.19,1767084712.640625
-0.35,1767084712.65625
9.83,1767084712.671875
17.94,1767084712.6875
23.88,1767084712.703125
27.75,1767084712.71875
29.74,1767084712.734375
30.07,1767084712.75
29.04,1767084712.765625
27.09,1767084712.78125
24.75,1767084712.796875
22.58,1767084712.8125
21.05,1767084712.828125
20.4,1767084712.84375
20.58,1767084712.859375
21.27,1767084712.875
21.99,1767084712.890625
22.31,1767084712.90625
21.98,1767084712.921875
21.01,1767084712.9375
19.63,1767084712.953125
18.15,1767084712.96875
16.78,1767084712.984375
15.5,1767084713.0
14.12,1767084713.015625
12.28,1767084713.03125
9.71,1767084713.046875
6.27,1767084713.0625
2.05,1767084713.078125
-2.65,1767084713.09375
-7.44,1767084713.109375
-11.99,1767084713.125
-16.06,1767084713.140625
-19.68,1767084713.15625
-23.07,1767084713.171875
-26.6,1767084713.1875
-30.71,1767084713.203125
-35.76,1767084713.21875
-41.85,1767084713.234375
-48.63,1767084713.25
-55.26,1767084713.265625
-60.49,1767084713.28125
-62.91,1767084713.296875
-61.43,1767084713.3125
-55.61,1767084713.328125
-45.81,1767084713.34375
-33.19,1767084713.359375
-19.31,1767084713.375
-5.72,1767084713.390625
6.37,1767084713.40625
16.3,1767084713.421875
23.83,1767084713.4375
29.02,1767084713.453125
32.1,1767084713.46875
33.31,1767084713.484375
33.01,1767084713.5
31.62,1767084713.515625
29.68,1767084713.53125
27.7,1767084713.546875
26.09,1767084713.5625
25.09,1767084713.578125
24.73,1767084713.59375
24.88,1767084713.609375
25.33,1767084713.625
25.86,1767084713.640625
26.28,1767084713.65625
26.46,1767084713.671875
26.29,1767084713.6875
25.77,1767084713.703125
24.93,1767084713.71875
23.79,1767084713.734375
22.32,1767084713.75
20.39,1767084713.765625
17.82,1767084713.78125
14.43,1767084713.796875
10.23,1767084713.8125
5.43,1767084713.828125
0.42,1767084713.84375
-4.38,1767084713.859375
-8.67,1767084713.875
-12.46,1767084713.890625
-15.96,1767084713.90625
-19.55,1767084713.921875
-23.64,1767084713.9375
-28.54,1767084713.953125
-34.33,1767084713.96875
-40.78,1767084713.984375
-47.25,1767084714.0
-52.68,1767084714.015625
-55.8,1767084714.03125
-55.38,1767084714.046875
-50.74,1767084714.0625
-41.99,1767084714.078125
-30.05,1767084714.09375
-16.44,1767084714.109375
-2.8,1767084714.125
9.52,1767084714.140625
19.68,1767084714.15625
27.34,1767084714.171875
32.52,1767084714.1875
35.48,1767084714.203125
36.53,1767084714.21875
36.08,1767084714.234375
34.57,1767084714.25
32.48,1767084714.265625
30.27,1767084714.28125
28.33,1767084714.296875
26.95,1767084714.3125
26.29,1767084714.328125
26.36,1767084714.34375
27.01,1767084714.359375
27.96,1767084714.375
28.89,1767084714.390625
29.54,1767084714.40625
29.77,1767084714.421875
29.54,1767084714.4375
28.82,1767084714.453125
27.58,1767084714.46875
25.7,1767084714.484375
23.09,1767084714.5
19.72,1767084714.515625
15.71,1767084714.53125
11.27,1767084714.546875
6.67,1767084714.5625
2.14,1767084714.578125
-2.14,1767084714.59375
-6.07,1767084714.609375
-9.71,1767084714.625
-13.15,1767084714.640625
-16.63,1767084714.65625
-20.4,1767084714.671875
-24.74,1767084714.6875
-29.82,1767084714.703125
-35.6,1767084714.71875
-41.72,1767084714.734375
-47.45,1767084714.75
-51.75,1767084714.765625
-53.5,1767084714.78125
-51.79,1767084714.796875
-46.24,1767084714.8125
-37.19,1767084714.828125
-25.65,1767084714.84375
-13.0,1767084714.859375
-0.64,1767084714.875
10.33,1767084714.890625
19.23,1767084714.90625
25.78,1767084714.921875
29.92,1767084714.9375
31.8,1767084714.953125
31.69,1767084714.96875
30.04,1767084714.984375
27.46,1767084715.0
24.67,1767084715.015625
22.32,1767084715.03125
20.85,1767084715.046875
20.38,1767084715.0625
20.73,1767084715.078125
21.53,1767084715.09375
22.37,1767084715.109375
22.97,1767084715.125
23.2,1767084715.140625
23.12,1767084715.15625
22.87,1767084715.171875
22.51,1767084715.1875
21.97,1767084715.203125
21.07,1767084715.21875
19.52,1767084715.234375
17.12,1767084715.25
13.86,1767084715.265625
10.01,1767084715.28125
5.95,1767084715.296875
2.13,1767084715.3125
-1.2,1767084715.328125
-4.07,1767084715.34375
-6.76,1767084715.359375
-9.72,1767084715.375
-13.4,1767084715.390625
-18.08,1767084715.40625
-23.75,1767084715.421875
-30.03,1767084715.4375
-36.18,1767084715.453125
-41.17,1767084715.46875
-43.86,1767084715.484375
-43.29,1767084715.5
-39.01,1767084715.515625
-31.25,1767084715.53125
-20.91,1767084715.546875
-9.4,1767084715.5625
1.81,1767084715.578125
11.55,1767084715.59375
19.13,1767084715.609375
24.42,1767084715.625
27.64,1767084715.640625
29.13,1767084715.65625
29.26,1767084715.671875
28.36,1767084715.6875
26.81,1767084715.703125
25.05,1767084715.71875
23.57,1767084715.734375
22.78,1767084715.75
22.88,1767084715.765625
23.76,1767084715.78125
25.02,1767084715.796875
26.14,1767084715.8125
26.72,1767084715.828125
26.63,1767084715.84375
26.03,1767084715.859375
25.25,1767084715.875
24.55,1767084715.890625
23.95,1767084715.90625
23.19,1767084715.921875
21.87,1767084715.9375
19.63,1767084715.953125
16.39,1767084715.96875
12.32,1767084715.984375
7.74,1767084716.0
2.96,1767084716.015625
-2.0,1767084716.03125
-7.27,1767084716.046875
-13.09,1767084716.0625
-19.67,1767084716.078125
-27.04,1767084716.09375
-35.04,1767084716.109375
-43.32,1767084716.125
-51.25,1767084716.140625
-57.92,1767084716.15625
-62.21,1767084716.171875
-63.06,1767084716.1875
-59.8,1767084716.203125
-52.45,1767084716.21875
-41.9,1767084716.234375
-29.63,1767084716.25
-17.25,1767084716.265625
-6.1,1767084716.28125
3.08,1767084716.296875
10.01,1767084716.3125
14.71,1767084716.328125
17.26,1767084716.34375
17.75,1767084716.359375
16.3,1767084716.375
13.31,1767084716.390625
9.42,1767084716.40625
5.49,1767084716.421875
2.38,1767084716.4375
0.68,1767084716.453125
0.57,1767084716.46875
1.82,1767084716.484375
3.92,1767084716.5
6.28,1767084716.515625
8.46,1767084716.53125
10.2,1767084716.546875
11.4,1767084716.5625
12.03,1767084716.578125
12.02,1767084716.59375
11.23,1767084716.609375
9.51,1767084716.625
6.84,1767084716.640625
3.4,1767084716.65625
-0.45,1767084716.671875
-4.24,1767084716.6875
-7.59,1767084716.703125
-10.33,1767084716.71875
-12.57,1767084716.734375
-14.7,1767084716.75
-17.26,1767084716.765625
-20.75,1767084716.78125
-25.51,1767084716.796875
-31.46,1767084716.8125
-38.06,1767084716.828125
-44.26,1767084716.84375
-48.71,1767084716.859375
-50.03,1767084716.875
-47.31,1767084716.890625
-40.37,1767084716.90625
-29.89,1767084716.921875
-17.28,1767084716.9375
-4.22,1767084716.953125
7.74,1767084716.96875
17.58,1767084716.984375
24.92,1767084717.0
29.84,1767084717.015625
32.65,1767084717.03125
33.65,1767084717.046875
33.08,1767084717.0625
31.19,1767084717.078125
28.4,1767084717.09375
25.29,1767084717.109375
22.6,1767084717.125
20.9,1767084717.140625
20.42,1767084717.15625
20.97,1767084717.171875
22.03,1767084717.1875
22.97,1767084717.203125
23.41,1767084717.21875
23.26,1767084717.234375
22.73,1767084717.25
22.09,1767084717.265625
21.48,1767084717.28125
20.79,1767084717.296875
19.69,1767084717.3125
17.81,1767084717.328125
14.89,1767084717.34375
10.95,1767084717.359375
6.3,1767084717.375
1.44,1767084717.390625
-3.1,1767084717.40625
-6.95,1767084717.421875
-10.07,1767084717.4375
-12.71,1767084717.453125
-15.39,1767084717.46875
-18.65,1767084717.484375
-22.88,1767084717.5
-28.15,1767084717.515625
-34.15,1767084717.53125
-40.14,1767084717.546875
-45.1,1767084717.5625
-47.94,1767084717.578125
-47.76,1767084717.59375
-44.08,1767084717.609375
-37.06,1767084717.625
-27.5,1767084717.640625
-16.57,1767084717.65625
-5.56,1767084717.671875
4.44,1767084717.6875
12.77,1767084717.703125
19.15,1767084717.71875
23.62,1767084717.734375
26.37,1767084717.75
27.68,1767084717.765625
27.86,1767084717.78125
27.26,1767084717.796875
26.23,1767084717.8125
25.11,1767084717.828125
24.15,1767084717.84375
23.57,1767084717.859375
23.43,1767084717.875
23.76,1767084717.890625
24.49,1767084717.90625
25.44,1767084717.921875
26.34,1767084717.9375
26.91,1767084717.953125
26.92,1767084717.96875
26.23,1767084717.984375
24.88,1767084718.0
22.97,1767084718.015625
20.66,1767084718.03125
18.04,1767084718.046875
15.17,1767084718.0625
12.07,1767084718.078125
8.76,1767084718.09375
5.31,1767084718.109375
1.8,1767084718.125
-1.67,1767084718.140625
-4.99,1767084718.15625
-8.07,1767084718.171875
-10.85,1767084718.1875
-13.3,1767084718.203125
-15.54,1767084718.21875
-17.74,1767084718.234375
-20.19,1767084718.25
-23.24,1767084718.265625
-27.18,1767084718.28125
-32.13,1767084718.296875
-37.85,1767084718.3125
-43.72,1767084718.328125
-48.7,1767084718.34375
-51.58,1767084718.359375
-51.3,1767084718.375
-47.26,1767084718.390625
-39.61,1767084718.40625
-29.21,1767084718.421875
-17.41,1767084718.4375
-5.66,1767084718.453125
4.81,1767084718.46875
13.28,1767084718.484375
19.53,1767084718.5
23.72,1767084718.515625
26.18,1767084718.53125
27.26,1767084718.546875
27.25,1767084718.5625
26.44,1767084718.578125
25.09,1767084718.59375
23.57,1767084718.609375
22.23,1767084718.625
21.41,1767084718.640625
21.28,1767084718.65625
21.78,1767084718.671875
22.74,1767084718.6875
23.89,1767084718.703125
25.0,1767084718.71875
25.92,1767084718.734375
26.52,1767084718.75
26.68,1767084718.765625
26.26,1767084718.78125
25.14,1767084718.796875
23.27,1767084718.8125
20.73,1767084718.828125
17.71,1767084718.84375
14.48,1767084718.859375
11.22,1767084718.875
8.01,1767084718.890625
4.84,1767084718.90625
1.62,1767084718.921875
-1.71,1767084718.9375
-5.11,1767084718.953125
-8.47,1767084718.96875
-11.63,1767084718.984375
-14.43,1767084719.0
-16.8,1767084719.015625
-18.85,1767084719.03125
-20.87,1767084719.046875
-23.3,1767084719.0625
-26.57,1767084719.078125
-30.91,1767084719.09375
-36.14,1767084719.109375
-41.61,1767084719.125
-46.27,1767084719.140625
-48.88,1767084719.15625
-48.38,1767084719.171875
-44.2,1767084719.1875
-36.5,1767084719.203125
-26.12,1767084719.21875
-14.41,1767084719.234375
-2.86,1767084719.25
7.32,1767084719.265625
15.36,1767084719.28125
20.98,1767084719.296875
24.29,1767084719.3125
25.63,1767084719.328125
25.42,1767084719.34375
24.12,1767084719.359375
22.17,1767084719.375
20.04,1767084719.390625
18.17,1767084719.40625
16.94,1767084719.421875
16.53,1767084719.4375
16.96,1767084719.453125
18.02,1767084719.46875
19.4,1767084719.484375
20.73,1767084719.5
21.71,1767084719.515625
22.18,1767084719.53125
22.07,1767084719.546875
21.46,1767084719.5625
20.41,1767084719.578125
18.99,1767084719.59375
17.19,1767084719.609375
15.0,1767084719.625
12.44,1767084719.640625
9.63,1767084719.65625
6.75,1767084719.671875
3.95,1767084719.6875
1.32,1767084719.703125
-1.17,1767084719.71875
-3.59,1767084719.734375
-6.02,1767084719.75
-8.48,1767084719.765625
-10.9,1767084719.78125
-13.2,1767084719.796875
-15.33,1767084719.8125
-17.4,1767084719.828125
-19.68,1767084719.84375
-22.55,1767084719.859375
-26.32,1767084719.875
-31.13,1767084719.890625
-36.7,1767084719.90625
-42.3,1767084719.921875
-46.85,1767084719.9375
-49.13,1767084719.953125
-48.13,1767084719.96875
-43.4,1767084719.984375
-35.26,1767084720.0
-24.67,1767084720.015625
-13.09,1767084720.03125
-1.96,1767084720.046875
7.59,1767084720.0625
14.94,1767084720.078125
19.95,1767084720.09375
22.82,1767084720.109375
23.87,1767084720.125
23.44,1767084720.140625
21.91,1767084720.15625
19.69,1767084720.171875
17.32,1767084720.1875
15.33,1767084720.203125
14.15,1767084720.21875
13.99,1767084720.234375
14.78,1767084720.25
16.19,1767084720.265625
17.8,1767084720.28125
19.25,1767084720.296875
20.31,1767084720.3125
20.89,1767084720.328125
21.05,1767084720.34375
20.8,1767084720.359375
20.12,1767084720.375
18.95,1767084720.390625
17.26,1767084720.40625
15.14,1767084720.421875
12.82,1767084720.4375
10.55,1767084720.453125
8.5,1767084720.46875
6.65,1767084720.484375
4.73,1767084720.5
2.44,1767084720.515625
-0.45,1767084720.53125
-3.92,1767084720.546875
-7.71,1767084720.5625
-11.42,1767084720.578125
-14.75,1767084720.59375
-17.54,1767084720.609375
-19.93,1767084720.625
-22.28,1767084720.640625
-25.0,1767084720.65625
-28.45,1767084720.671875
-32.75,1767084720.6875
-37.73,1767084720.703125
-42.84,1767084720.71875
-47.15,1767084720.734375
-49.58,1767084720.75
-49.11,1767084720.765625
-45.19,1767084720.78125
-37.9,1767084720.796875
-28.05,1767084720.8125
-16.91,1767084720.828125
-5.86,1767084720.84375
4.0,1767084720.859375
12.01,1767084720.875
17.95,1767084720.890625
21.88,1767084720.90625
23.94,1767084720.921875
24.27,1767084720.9375
23.11,1767084720.953125
20.84,1767084720.96875
18.08,1767084720.984375
15.56,1767084721.0
13.92,1767084721.015625
13.57,1767084721.03125
14.5,1767084721.046875
16.34,1767084721.0625
18.46,1767084721.078125
20.27,1767084721.09375
21.29,1767084721.109375
21.39,1767084721.125
20.65,1767084721.140625
19.34,1767084721.15625
17.67,1767084721.171875
15.77,1767084721.1875
13.59,1767084721.203125
11.02,1767084721.21875
7.99,1767084721.234375
4.57,1767084721.25
0.98,1767084721.265625
-2.5,1767084721.28125
-5.63,1767084721.296875
-8.33,1767084721.3125
-10.69,1767084721.328125
-12.93,1767084721.34375
-15.24,1767084721.359375
-17.83,1767084721.375
-20.82,1767084721.390625
-24.29,1767084721.40625
-28.32,1767084721.421875
-32.84,1767084721.4375
-37.52,1767084721.453125
-41.66,1767084721.46875
-44.24,1767084721.484375
-44.16,1767084721.5
-40.7,1767084721.515625
-33.81,1767084721.53125
-24.2,1767084721.546875
-13.22,1767084721.5625
-2.36,1767084721.578125
7.17,1767084721.59375
14.69,1767084721.609375
20.02,1767084721.625
23.34,1767084721.640625
24.84,1767084721.65625
24.72,1767084721.671875
23.16,1767084721.6875
20.49,1767084721.703125
17.27,1767084721.71875
14.23,1767084721.734375
12.01,1767084721.75
11.05,1767084721.765625
11.34,1767084721.78125
12.49,1767084721.796875
13.92,1767084721.8125
15.05,1767084721.828125
15.52,1767084721.84375
15.28,1767084721.859375
14.49,1767084721.875
13.39,1767084721.890625
12.17,1767084721.90625
10.79,1767084721.921875
9.06,1767084721.9375
6.71,1767084721.953125
3.59,1767084721.96875
-0.21,1767084721.984375
-4.37,1767084722.0
-8.41,1767084722.015625
-11.92,1767084722.03125
-14.76,1767084722.046875
-17.1,1767084722.0625
-19.41,1767084722.078125
-22.23,1767084722.09375
-26.02,1767084722.109375
-30.94,1767084722.125
-36.8,1767084722.140625
-43.08,1767084722.15625
-48.96,1767084722.171875
-53.44,1767084722.1875
-55.49,1767084722.203125
-54.28,1767084722.21875
-49.42,1767084722.234375
-41.14,1767084722.25
-30.31,1767084722.265625
-18.24,1767084722.28125
-6.35,1767084722.296875
4.17,1767084722.3125
12.58,1767084722.328125
18.65,1767084722.34375
22.51,1767084722.359375
24.45,1767084722.375
24.79,1767084722.390625
23.91,1767084722.40625
22.18,1767084722.421875
20.09,1767084722.4375
18.13,1767084722.453125
16.73,1767084722.46875
16.13,1767084722.484375
16.36,1767084722.5
17.18,1767084722.515625
18.28,1767084722.53125
19.3,1767084722.546875
20.02,1767084722.5625
20.3,1767084722.578125
20.13,1767084722.59375
19.52,1767084722.609375
18.47,1767084722.625
16.88,1767084722.640625
14.63,1767084722.65625
11.63,1767084722.671875
7.86,1767084722.6875
3.47,1767084722.703125
-1.23,1767084722.71875
-5.84,1767084722.734375
-9.98,1767084722.75
-13.42,1767084722.765625
-16.21,1767084722.78125
-18.68,1767084722.796875
-21.37,1767084722.8125
-24.83,1767084722.828125
-29.42,1767084722.84375
-35.09,1767084722.859375
-41.27,1767084722.875
-46.97,1767084722.890625
-50.88,1767084722.90625
-51.79,1767084722.921875
-48.87,1767084722.9375
-42.06,1767084722.953125
-32.07,1767084722.96875
-20.26,1767084722.984375
-8.24,1767084723.0
2.61,1767084723.015625
11.44,1767084723.03125
18.01,1767084723.046875
22.5,1767084723.0625
25.26,1767084723.078125
26.56,1767084723.09375
26.59,1767084723.109375
25.48,1767084723.125
23.58,1767084723.140625
21.37,1767084723.15625
19.46,1767084723.171875
18.36,1767084723.1875
18.31,1767084723.203125
19.21,1767084723.21875
20.67,1767084723.234375
22.22,1767084723.25
23.42,1767084723.265625
24.01,1767084723.28125
23.94,1767084723.296875
23.29,1767084723.3125
22.22,1767084723.328125
20.8,1767084723.34375
19.05,1767084723.359375
16.89,1767084723.375
14.21,1767084723.390625
10.97,1767084723.40625
7.25,1767084723.421875
3.25,1767084723.4375
-0.77,1767084723.453125
-4.59,1767084723.46875
-8.09,1767084723.484375
-11.27,1767084723.5
-14.26,1767084723.515625
-17.21,1767084723.53125
-20.32,1767084723.546875
-23.8,1767084723.5625
-27.86,1767084723.578125
-32.63,1767084723.59375
-37.97,1767084723.609375
-43.32,1767084723.625
-47.7,1767084723.640625
-49.87,1767084723.65625
-48.77,1767084723.671875
-43.91,1767084723.6875
-35.57,1767084723.703125
-24.81,1767084723.71875
-13.05,1767084723.734375
-1.7,1767084723.75
8.27,1767084723.765625
16.38,1767084723.78125
22.59,1767084723.796875
27.03,1767084723.8125
29.86,1767084723.828125
31.22,1767084723.84375
31.26,1767084723.859375
30.29,1767084723.875
28.77,1767084723.890625
27.25,1767084723.90625
26.21,1767084723.921875
25.97,1767084723.9375
26.58,1767084723.953125
27.88,1767084723.96875
29.52,1767084723.984375
31.1,1767084724.0
32.28,1767084724.015625
32.79,1767084724.03125
32.47,1767084724.046875
31.32,1767084724.0625
29.42,1767084724.078125
26.92,1767084724.09375
24.02,1767084724.109375
20.9,1767084724.125
17.71,1767084724.140625
14.56,1767084724.15625
11.5,1767084724.171875
8.51,1767084724.1875
5.52,1767084724.203125
2.44,1767084724.21875
-0.82,1767084724.234375
-4.24,1767084724.25
-7.7,1767084724.265625
-10.99,1767084724.28125
-13.9,1767084724.296875
-16.43,1767084724.3125
-18.68,1767084724.328125
-21.04,1767084724.34375
-23.94,1767084724.359375
-27.8,1767084724.375
-32.83,1767084724.390625
-38.9,1767084724.40625
-45.52,1767084724.421875
-51.76,1767084724.4375
-56.44,1767084724.453125
-58.28,1767084724.46875
-56.32,1767084724.484375
-50.17,1767084724.5
-40.25,1767084724.515625
-27.73,1767084724.53125
-14.22,1767084724.546875
-1.32,1767084724.5625
9.83,1767084724.578125
18.71,1767084724.59375
25.34,1767084724.609375
30.06,1767084724.625
33.19,1767084724.640625
34.96,1767084724.65625
35.54,1767084724.671875
35.2,1767084724.6875
34.37,1767084724.703125
33.57,1767084724.71875
33.14,1767084724.734375
33.13,1767084724.75
33.27,1767084724.765625
33.18,1767084724.78125
32.6,1767084724.796875
31.59,1767084724.8125
30.41,1767084724.828125
29.43,1767084724.84375
28.76,1767084724.859375
28.25,1767084724.875
27.49,1767084724.890625
26.07,1767084724.90625
23.77,1767084724.921875
20.66,1767084724.9375
17.01,1767084724.953125
13.17,1767084724.96875
9.44,1767084724.984375
5.99,1767084725.0
2.87,1767084725.015625
0.08,1767084725.03125
-2.49,1767084725.046875
-4.99,1767084725.0625
-7.56,1767084725.078125
-10.28,1767084725.09375
-13.13,1767084725.109375
-15.94,1767084725.125
-18.53,1767084725.140625
-20.81,1767084725.15625
-22.94,1767084725.171875
-25.3,1767084725.1875
-28.4,1767084725.203125
-32.68,1767084725.21875
-38.18,1767084725.234375
-44.44,1767084725.25
-50.42,1767084725.265625
-54.72,1767084725.28125
-55.95,1767084725.296875
-53.14,1767084725.3125
-46.14,1767084725.328125
-35.68,1767084725.34375
-23.19,1767084725.359375
-10.31,1767084725.375
1.53,1767084725.390625
11.51,1767084725.40625
19.36,1767084725.421875
25.21,1767084725.4375
29.22,1767084725.453125
31.53,1767084725.46875
32.22,1767084725.484375
31.53,1767084725.5
29.93,1767084725.515625
28.07,1767084725.53125
26.58,1767084725.546875
25.86,1767084725.5625
25.97,1767084725.578125
26.68,1767084725.59375
27.62,1767084725.609375
28.51,1767084725.625
29.15,1767084725.640625
29.51,1767084725.65625
29.58,1767084725.671875
29.34,1767084725.6875
28.69,1767084725.703125
27.57,1767084725.71875
25.9,1767084725.734375
23.73,1767084725.75
21.13,1767084725.765625
18.24,1767084725.78125
15.17,1767084725.796875
11.99,1767084725.8125
8.77,1767084725.828125
5.52,1767084725.84375
2.3,1767084725.859375
-0.91,1767084725.875
-4.13,1767084725.890625
-7.39,1767084725.90625
-10.69,1767084725.921875
-13.96,1767084725.9375
-17.01,1767084725.953125
-19.7,1767084725.96875
-22.04,1767084725.984375
-24.31,1767084726.0
-27.06,1767084726.015625
-30.85,1767084726.03125
-35.97,1767084726.046875
-42.06,1767084726.0625
-48.12,1767084726.078125
-52.64,1767084726.09375
-54.13,1767084726.109375
-51.66,1767084726.125
-45.14,1767084726.140625
-35.41,1767084726.15625
-23.91,1767084726.171875
-12.19,1767084726.1875
-1.5,1767084726.203125
7.48,1767084726.21875
14.55,1767084726.234375
19.81,1767084726.25
23.41,1767084726.265625
25.44,1767084726.28125
25.99,1767084726.296875
25.24,1767084726.3125
23.61,1767084726.328125
21.74,1767084726.34375
20.31,1767084726.359375
19.89,1767084726.375
20.62,1767084726.390625
22.26,1767084726.40625
24.27,1767084726.421875
26.05,1767084726.4375
27.2,1767084726.453125
27.57,1767084726.46875
27.25,1767084726.484375
26.47,1767084726.5
25.38,1767084726.515625
24.03,1767084726.53125
22.32,1767084726.546875
20.15,1767084726.5625
17.47,1767084726.578125
14.36,1767084726.59375
11.0,1767084726.609375
7.54,1767084726.625
4.11,1767084726.640625
0.76,1767084726.65625
-2.5,1767084726.671875
-5.6,1767084726.6875
-8.48,1767084726.703125
-11.13,1767084726.71875
-13.62,1767084726.734375
-16.2,1767084726.75
-19.24,1767084726.765625
-23.08,1767084726.78125
-27.87,1767084726.796875
-33.4,1767084726.8125
-39.04,1767084726.828125
-43.81,1767084726.84375
-46.54,1767084726.859375
-46.23,1767084726.875
-42.31,1767084726.890625
-34.9,1767084726.90625
-24.84,1767084726.921875
-13.53,1767084726.9375
-2.5,1767084726.953125
6.96,1767084726.96875
14.08,1767084726.984375
18.66,1767084727.0
20.91,1767084727.015625
21.24,1767084727.03125
20.08,1767084727.046875
17.88,1767084727.0625
15.16,1767084727.078125
12.53,1767084727.09375
10.6,1767084727.109375
9.77,1767084727.125
10.1,1767084727.140625
11.21,1767084727.15625
12.53,1767084727.171875
13.48,1767084727.1875
13.75,1767084727.203125
13.3,1767084727.21875
12.32,1767084727.234375
10.98,1767084727.25
9.33,1767084727.265625
7.28,1767084727.28125
4.67,1767084727.296875
1.46,1767084727.3125
-2.19,1767084727.328125
-5.92,1767084727.34375
-9.27,1767084727.359375
-11.91,1767084727.375
-13.74,1767084727.390625
-15.02,1767084727.40625
-16.2,1767084727.421875
-17.88,1767084727.4375
-20.53,1767084727.453125
-24.38,1767084727.46875
-29.38,1767084727.484375
-35.05,1767084727.5
-40.65,1767084727.515625
-45.15,1767084727.53125
-47.44,1767084727.546875
-46.62,1767084727.5625
-42.24,1767084727.578125
-34.55,1767084727.59375
-24.46,1767084727.609375
-13.32,1767084727.625
-2.54,1767084727.640625
6.79,1767084727.65625
14.11,1767084727.671875
19.38,1767084727.6875
22.8,1767084727.703125
24.66,1767084727.71875
25.16,1767084727.734375
24.49,1767084727.75
22.9,1767084727.765625
20.82,1767084727.78125
18.8,1767084727.796875
17.35,1767084727.8125
16.76,1767084727.828125
16.97,1767084727.84375
17.67,1767084727.859375
18.37,1767084727.875
18.67,1767084727.890625
18.38,1767084727.90625
17.51,1767084727.921875
16.24,1767084727.9375
14.7,1767084727.953125
12.86,1767084727.96875
10.6,1767084727.984375
7.7,1767084728.0
4.03,1767084728.015625
-0.31,1767084728.03125
-4.98,1767084728.046875
-9.55,1767084728.0625
-13.56,1767084728.078125
-16.82,1767084728.09375
-19.43,1767084728.109375
-21.78,1767084728.125
-24.48,1767084728.140625
-28.11,1767084728.15625
-33.06,1767084728.171875
-39.28,1767084728.1875
-46.15,1767084728.203125
-52.57,1767084728.21875
-57.11,1767084728.234375
-58.39,1767084728.25
-55.55,1767084728.265625
-48.52,1767084728.28125
-38.14,1767084728.296875
-25.88,1767084728.3125
-13.43,1767084728.328125
-2.23,1767084728.34375
6.89,1767084728.359375
13.76,1767084728.375
18.68,1767084728.390625
22.08,1767084728.40625
24.26,1767084728.421875
25.35,1767084728.4375
25.41,1767084728.453125
24.58,1767084728.46875
23.32,1767084728.484375
22.17,1767084728.5
21.69,1767084728.515625
22.14,1767084728.53125
23.4,1767084728.546875
25.02,1767084728.5625
26.43,1767084728.578125
27.22,1767084728.59375
27.2,1767084728.609375
26.46,1767084728.625
25.22,1767084728.640625
23.69,1767084728.65625
22.0,1767084728.671875
20.09,1767084728.6875
17.82,1767084728.703125
14.98,1767084728.71875
11.45,1767084728.734375
7.2,1767084728.75
2.44,1767084728.765625
-2.53,1767084728.78125
-7.35,1767084728.796875
-11.77,1767084728.8125
-15.72,1767084728.828125
-19.36,1767084728.84375
-23.04,1767084728.859375
-27.18,1767084728.875
-32.13,1767084728.890625
-38.11,1767084728.90625
-44.99,1767084728.921875
-52.21,1767084728.9375
-58.8,1767084728.953125
-63.47,1767084728.96875
-64.91,1767084728.984375
-62.25,1767084729.0
-55.29,1767084729.015625
-44.68,1767084729.03125
-31.75,1767084729.046875
-18.12,1767084729.0625
-5.29,1767084729.078125
5.72,1767084729.09375
14.5,1767084729.109375
21.13,1767084729.125
25.95,1767084729.140625
29.3,1767084729.15625
31.48,1767084729.171875
32.72,1767084729.1875
33.29,1767084729.203125
33.5,1767084729.21875
33.7,1767084729.234375
34.15,1767084729.25
34.96,1767084729.265625
36.03,1767084729.28125
37.13,1767084729.296875
37.99,1767084729.3125
38.46,1767084729.328125
38.52,1767084729.34375
38.28,1767084729.359375
37.83,1767084729.375
37.17,1767084729.390625
36.16,1767084729.40625
34.55,1767084729.421875
32.09,1767084729.4375
28.7,1767084729.453125
24.55,1767084729.46875
20.05,1767084729.484375
15.66,1767084729.5
11.73,1767084729.515625
8.34,1767084729.53125
5.23,1767084729.546875
2.0,1767084729.5625
-1.7,1767084729.578125
-5.94,1767084729.59375
-10.52,1767084729.609375
-14.99,1767084729.625
-18.96,1767084729.640625
-22.27,1767084729.65625
-25.09,1767084729.671875
-27.85,1767084729.6875
-31.12,1767084729.703125
-35.43,1767084729.71875
-41.1,1767084729.734375
-48.08,1767084729.75
-55.81,1767084729.765625
-63.24,1767084729.78125
-68.83,1767084729.796875
-71.03,1767084729.8125
-68.64,1767084729.828125
-61.36,1767084729.84375
-49.92,1767084729.859375
-35.94,1767084729.875
-21.33,1767084729.890625
-7.77,1767084729.90625
3.75,1767084729.921875
13.01,1767084729.9375
20.26,1767084729.953125
25.85,1767084729.96875
30.03,1767084729.984375
32.89,1767084730.0
34.47,1767084730.015625
34.96,1767084730.03125
34.78,1767084730.046875
34.41,1767084730.0625
34.29,1767084730.078125
34.63,1767084730.09375
35.38,1767084730.109375
36.36,1767084730.125
37.31,1767084730.140625
38.01,1767084730.15625
38.37,1767084730.171875
38.39,1767084730.1875
38.16,1767084730.203125
37.75,1767084730.21875
37.14,1767084730.234375
36.2,1767084730.25
34.68,1767084730.265625
32.42,1767084730.28125
29.37,1767084730.296875
25.71,1767084730.3125
21.79,1767084730.328125
18.03,1767084730.34375
14.7,1767084730.359375
11.85,1767084730.375
9.25,1767084730.390625
6.53,1767084730.40625
3.38,1767084730.421875
-0.36,1767084730.4375
-4.56,1767084730.453125
-8.92,1767084730.46875
-13.05,1767084730.484375
-16.7,1767084730.5
-19.84,1767084730.515625
-22.7,1767084730.53125
-25.69,1767084730.546875
-29.27,1767084730.5625
-33.87,1767084730.578125
-39.73,1767084730.59375
-46.75,1767084730.609375
-54.42,1767084730.625
-61.69,1767084730.640625
-67.12,1767084730.65625
-69.18,1767084730.671875
-66.75,1767084730.6875
-59.47,1767084730.703125
-48.01,1767084730.71875
-33.92,1767084730.734375
-19.12,1767084730.75
-5.36,1767084730.765625
6.27,1767084730.78125
15.43,1767084730.796875
22.32,1767084730.8125
27.36,1767084730.828125
30.88,1767084730.84375
33.03,1767084730.859375
33.89,1767084730.875
33.6,1767084730.890625
32.54,1767084730.90625
31.27,1767084730.921875
30.36,1767084730.9375
30.18,1767084730.953125
30.74,1767084730.96875
31.69,1767084730.984375
32.55,1767084731.0
32.93,1767084731.015625
32.76,1767084731.03125
32.26,1767084731.046875
31.78,1767084731.0625
31.54,1767084731.078125
31.42,1767084731.09375
31.0,1767084731.109375
29.75,1767084731.125
27.31,1767084731.140625
23.73,1767084731.15625
19.45,1767084731.171875
15.07,1767084731.1875
11.13,1767084731.203125
7.83,1767084731.21875
5.06,1767084731.234375
2.46,1767084731.25
-0.33,1767084731.265625
-3.48,1767084731.28125
-6.95,1767084731.296875
-10.51,1767084731.3125
-13.91,1767084731.328125
-16.92,1767084731.34375
-19.54,1767084731.359375
-21.93,1767084731.375
-24.35,1767084731.390625
-27.13,1767084731.40625
-30.58,1767084731.421875
-34.9,1767084731.4375
-40.13,1767084731.453125
-46.01,1767084731.46875
-51.87,1767084731.484375
-56.61,1767084731.5
-58.84,1767084731.515625
-57.37,1767084731.53125
-51.57,1767084731.546875
-41.78,1767084731.5625
-29.26,1767084731.578125
-15.82,1767084731.59375
-3.22,1767084731.609375
7.36,1767084731.625
15.49,1767084731.640625
21.4,1767084731.65625
25.54,1767084731.671875
28.31,1767084731.6875
29.83,1767084731.703125
30.13,1767084731.71875
29.28,1767084731.734375
27.64,1767084731.75
25.8,1767084731.765625
24.44,1767084731.78125
24.01,1767084731.796875
24.6,1767084731.8125
25.88,1767084731.828125
27.32,1767084731.84375
28.46,1767084731.859375
29.07,1767084731.875
29.21,1767084731.890625
29.12,1767084731.90625
28.92,1767084731.921875
28.5,1767084731.9375
27.52,1767084731.953125
25.63,1767084731.96875
22.69,1767084731.984375
18.92,1767084732.0
14.83,1767084732.015625
11.02,1767084732.03125
7.87,1767084732.046875
5.46,1767084732.0625
3.46,1767084732.078125
1.42,1767084732.09375
-1.09,1767084732.109375
-4.3,1767084732.125
-8.06,1767084732.140625
-12.06,1767084732.15625
-15.85,1767084732.171875
-19.09,1767084732.1875
-21.67,1767084732.203125
-23.76,1767084732.21875
-25.74,1767084732.234375
-28.1,1767084732.25
-31.34,1767084732.265625
-35.75,1767084732.28125
-41.34,1767084732.296875
-47.61,1767084732.3125
-53.64,1767084732.328125
-58.11,1767084732.34375
-59.66,1767084732.359375
-57.28,1767084732.375
-50.69,1767084732.390625
-40.52,1767084732.40625
-28.11,1767084732.421875
-15.14,1767084732.4375
-3.14,1767084732.453125
6.85,1767084732.46875
14.41,1767084732.484375
19.6,1767084732.5
22.79,1767084732.515625
24.39,1767084732.53125
24.75,1767084732.546875
24.2,1767084732.5625
23.07,1767084732.578125
21.73,1767084732.59375
20.59,1767084732.609375
20.04,1767084732.625
20.31,1767084732.640625
21.43,1767084732.65625
23.15,1767084732.671875
25.05,1767084732.6875
26.74,1767084732.703125
27.88,1767084732.71875
28.36,1767084732.734375
28.15,1767084732.75
27.31,1767084732.765625
25.85,1767084732.78125
23.77,1767084732.796875
21.13,1767084732.8125
18.07,1767084732.828125
14.86,1767084732.84375
11.75,1767084732.859375
8.92,1767084732.875
6.32,1767084732.890625
3.76,1767084732.90625
0.96,1767084732.921875
-2.23,1767084732.9375
-5.8,1767084732.953125
-9.5,1767084732.96875
-12.97,1767084732.984375
-15.92,1767084733.0
-18.26,1767084733.015625
-20.22,1767084733.03125
-22.27,1767084733.046875
-24.98,1767084733.0625
-28.84,1767084733.078125
-34.03,1767084733.09375
-40.27,1767084733.109375
-46.72,1767084733.125
-52.17,1767084733.140625
-55.22,1767084733.15625
-54.78,1767084733.171875
-50.29,1767084733.1875
-42.05,1767084733.203125
-31.05,1767084733.21875
-18.78,1767084733.234375
-6.77,1767084733.25
3.74,1767084733.265625
12.11,1767084733.28125
18.17,1767084733.296875
22.17,1767084733.3125
24.47,1767084733.328125
25.39,1767084733.34375
25.15,1767084733.359375
23.96,1767084733.375
22.13,1767084733.390625
20.13,1767084733.40625
18.52,1767084733.421875
17.83,1767084733.4375
18.27,1767084733.453125
19.65,1767084733.46875
21.41,1767084733.484375
22.85,1767084733.5
23.42,1767084733.515625
22.94,1767084733.53125
21.65,1767084733.546875
20.0,1767084733.5625
18.4,1767084733.578125
16.95,1767084733.59375
15.43,1767084733.609375
13.44,1767084733.625
10.64,1767084733.640625
7.04,1767084733.65625
2.99,1767084733.671875
-0.99,1767084733.6875
-4.43,1767084733.703125
-7.17,1767084733.71875
-9.38,1767084733.734375
-11.45,1767084733.75
-13.83,1767084733.765625
-16.79,1767084733.78125
-20.44,1767084733.796875
-24.73,1767084733.8125
-29.54,1767084733.828125
-34.6,1767084733.84375
-39.46,1767084733.859375
-43.4,1767084733.875
-45.49,1767084733.890625
-44.83,1767084733.90625
-40.88,1767084733.921875
-33.72,1767084733.9375
-24.14,1767084733.953125
-13.48,1767084733.96875
-3.14,1767084733.984375
5.76,1767084734.0
12.6,1767084734.015625
17.32,1767084734.03125
20.14,1767084734.046875
21.34,1767084734.0625
21.12,1767084734.078125
19.68,1767084734.09375
17.26,1767084734.109375
14.37,1767084734.125
11.62,1767084734.140625
9.63,1767084734.15625
8.77,1767084734.171875
9.05,1767084734.1875
10.16,1767084734.203125
11.63,1767084734.21875
12.98,1767084734.234375
13.93,1767084734.25
14.31,1767084734.265625
14.08,1767084734.28125
13.17,1767084734.296875
11.56,1767084734.3125
9.22,1767084734.328125
6.21,1767084734.34375
2.68,1767084734.359375
-1.11,1767084734.375
-4.88,1767084734.390625
-8.4,1767084734.40625
-11.55,1767084734.421875
-14.46,1767084734.4375
-17.45,1767084734.453125
-20.93,1767084734.46875
-25.27,1767084734.484375
-30.53,1767084734.5
-36.35,1767084734.515625
-41.9,1767084734.53125
-46.06,1767084734.546875
-47.66,1767084734.5625
-45.85,1767084734.578125
-40.36,1767084734.59375
-31.66,1767084734.609375
-20.89,1767084734.625
-9.51,1767084734.640625
1.04,1767084734.65625
9.72,1767084734.671875
16.08,1767084734.6875
20.13,1767084734.703125
22.19,1767084734.71875
22.57,1767084734.734375
21.51,1767084734.75
19.19,1767084734.765625
15.89,1767084734.78125
12.11,1767084734.796875
8.49,1767084734.8125
5.74,1767084734.828125
4.31,1767084734.84375
4.34,1767084734.859375
5.59,1767084734.875
7.52,1767084734.890625
9.53,1767084734.90625
10.97,1767084734.921875
11.38,1767084734.9375
10.52,1767084734.953125
8.4,1767084734.96875
5.28,1767084734.984375
1.59,1767084735.0
-2.3,1767084735.015625
-6.13,1767084735.03125
-9.9,1767084735.046875
-13.79,1767084735.0625
-18.09,1767084735.078125
-23.07,1767084735.09375
-28.87,1767084735.109375
-35.38,1767084735.125
-42.12,1767084735.140625
-48.24,1767084735.15625
-52.6,1767084735.171875
-53.98,1767084735.1875
-51.52,1767084735.203125
-44.97,1767084735.21875
-34.95,1767084735.234375
-22.69,1767084735.25
-9.81,1767084735.265625
2.23,1767084735.28125
12.38,1767084735.296875
20.13,1767084735.3125
25.38,1767084735.328125
28.23,1767084735.34375
28.82,1767084735.359375
27.38,1767084735.375
24.28,1767084735.390625
20.1,1767084735.40625
15.65,1767084735.421875
11.78,1767084735.4375
9.22,1767084735.453125
8.32,1767084735.46875
9.0,1767084735.484375
10.78,1767084735.5
12.93,1767084735.515625
14.7,1767084735.53125
15.57,1767084735.546875
15.31,1767084735.5625
14.0,1767084735.578125
11.92,1767084735.59375
9.35,1767084735.609375
6.52,1767084735.625
3.43,1767084735.640625
-0.09,1767084735.65625
-4.33,1767084735.671875
-9.55,1767084735.6875
-15.91,1767084735.703125
-23.23,1767084735.71875
-30.91,1767084735.734375
-37.96,1767084735.75
-43.1,1767084735.765625
-45.09,1767084735.78125
-43.09,1767084735.796875
-36.91,1767084735.8125
-27.18,1767084735.828125
-15.13,1767084735.84375
-2.34,1767084735.859375
9.75,1767084735.875
20.06,1767084735.890625
28.01,1767084735.90625
33.37,1767084735.921875
36.18,1767084735.9375
36.58,1767084735.953125
34.81,1767084735.96875
31.28,1767084735.984375
26.64,1767084736.0
21.75,1767084736.015625
17.47,1767084736.03125
14.48,1767084736.046875
13.05,1767084736.0625
12.96,1767084736.078125
13.63,1767084736.09375
14.36,1767084736.109375
14.53,1767084736.125
13.81,1767084736.140625
12.19,1767084736.15625
9.9,1767084736.171875
7.24,1767084736.1875
4.46,1767084736.203125
1.66,1767084736.21875
-1.29,1767084736.234375
-4.63,1767084736.25
-8.65,1767084736.265625
-13.61,1767084736.28125
-19.61,1767084736.296875
-26.5,1767084736.3125
-33.85,1767084736.328125
-40.84,1767084736.34375
-46.36,1767084736.359375
-49.19,1767084736.375
-48.29,1767084736.390625
-43.16,1767084736.40625
-34.02,1767084736.421875
-21.9,1767084736.4375
-8.37,1767084736.453125
4.86,1767084736.46875
16.4,1767084736.484375
25.5,1767084736.5
32.0,1767084736.515625
36.19,1767084736.53125
38.46,1767084736.546875
39.16,1767084736.5625
38.52,1767084736.578125
36.82,1767084736.59375
34.47,1767084736.609375
32.03,1767084736.625
30.08,1767084736.640625
28.94,1767084736.65625
28.66,1767084736.671875
28.87,1767084736.6875
29.1,1767084736.703125
28.91,1767084736.71875
28.12,1767084736.734375
26.72,1767084736.75
24.78,1767084736.765625
22.32,1767084736.78125
19.23,1767084736.796875
15.33,1767084736.8125
10.55,1767084736.828125
5.02,1767084736.84375
-0.91,1767084736.859375
-6.83,1767084736.875
-12.38,1767084736.890625
-17.55,1767084736.90625
-22.6,1767084736.921875
-28.02,1767084736.9375
-34.31,1767084736.953125
-41.65,1767084736.96875
-49.69,1767084736.984375
-57.42,1767084737.0
-63.29,1767084737.015625
-65.63,1767084737.03125
-63.12,1767084737.046875
-55.3,1767084737.0625
-42.78,1767084737.078125
-27.13,1767084737.09375
-10.42,1767084737.109375
5.39,1767084737.125
18.93,1767084737.140625
29.59,1767084737.15625
37.48,1767084737.171875
43.01,1767084737.1875
46.66,1767084737.203125
48.72,1767084737.21875
49.36,1767084737.234375
48.8,1767084737.25
47.35,1767084737.265625
45.5,1767084737.28125
43.81,1767084737.296875
42.74,1767084737.3125
42.54,1767084737.328125
43.17,1767084737.34375
44.39,1767084737.359375
45.82,1767084737.375
47.08,1767084737.390625
47.93,1767084737.40625
48.22,1767084737.421875
47.96,1767084737.4375
47.21,1767084737.453125
46.01,1767084737.46875
44.28,1767084737.484375
41.87,1767084737.5
38.58,1767084737.515625
34.27,1767084737.53125
28.99,1767084737.546875
22.98,1767084737.5625
16.64,1767084737.578125
10.37,1767084737.59375
4.47,1767084737.609375
-0.98,1767084737.625
-6.03,1767084737.640625
-10.85,1767084737.65625
-15.62,1767084737.671875
-20.58,1767084737.6875
-26.01,1767084737.703125
-32.22,1767084737.71875
-39.5,1767084737.734375
-47.79,1767084737.75
-56.47,1767084737.765625
-64.31,1767084737.78125
-69.63,1767084737.796875
-70.82,1767084737.8125
-66.94,1767084737.828125
-58.09,1767084737.84375
-45.43,1767084737.859375
-30.85,1767084737.875
-16.28,1767084737.890625
-3.21,1767084737.90625
7.64,1767084737.921875
16.25,1767084737.9375
22.97,1767084737.953125
28.18,1767084737.96875
32.17,1767084737.984375
35.07,1767084738.0
36.95,1767084738.015625
37.96,1767084738.03125
38.33,1767084738.046875
38.3,1767084738.0625
38.11,1767084738.078125
37.92,1767084738.09375
37.78,1767084738.109375
37.7,1767084738.125
37.61,1767084738.140625
37.42,1767084738.15625
37.06,1767084738.171875
36.49,1767084738.1875
35.67,1767084738.203125
34.57,1767084738.21875
33.1,1767084738.234375
31.12,1767084738.25
28.52,1767084738.265625
25.29,1767084738.28125
21.54,1767084738.296875
17.55,1767084738.3125
13.59,1767084738.328125
9.91,1767084738.34375
6.51,1767084738.359375
3.24,1767084738.375
-0.11,1767084738.390625
-3.7,1767084738.40625
-7.48,1767084738.421875
-11.27,1767084738.4375
-14.79,1767084738.453125
-17.89,1767084738.46875
-20.56,1767084738.484375
-23.08,1767084738.5
-25.84,1767084738.515625
-29.32,1767084738.53125
-33.78,1767084738.546875
-39.17,1767084738.5625
-44.96,1767084738.578125
-50.18,1767084738.59375
-53.61,1767084738.609375
-54.08,1767084738.625
-50.89,1767084738.640625
-44.04,1767084738.65625
-34.31,1767084738.671875
-22.96,1767084738.6875
-11.44,1767084738.703125
-0.93,1767084738.71875
7.9,1767084738.734375
14.86,1767084738.75
20.19,1767084738.765625
24.23,1767084738.78125
27.28,1767084738.796875
29.46,1767084738.8125
30.76,1767084738.828125
31.18,1767084738.84375
30.81,1767084738.859375
29.9,1767084738.875
28.82,1767084738.890625
27.92,1767084738.90625
27.41,1767084738.921875
27.27,1767084738.9375
27.28,1767084738.953125
27.16,1767084738.96875
26.74,1767084738.984375
25.99,1767084739.0
25.05,1767084739.015625
24.01,1767084739.03125
22.93,1767084739.046875
21.63,1767084739.0625
19.88,1767084739.078125
17.47,1767084739.09375
14.41,1767084739.109375
10.96,1767084739.125
7.53,1767084739.140625
4.53,1767084739.15625
2.16,1767084739.171875
0.35,1767084739.1875
-1.23,1767084739.203125
-2.96,1767084739.21875
-5.09,1767084739.234375
-7.67,1767084739.25
-10.53,1767084739.265625
-13.43,1767084739.28125
-16.17,1767084739.296875
-18.64,1767084739.3125
-20.87,1767084739.328125
-22.93,1767084739.34375
-24.94,1767084739.359375
-27.07,1767084739.375
-29.55,1767084739.390625
-32.62,1767084739.40625
-36.45,1767084739.421875
-40.95,1767084739.4375
-45.62,1767084739.453125
-49.48,1767084739.46875
-51.35,1767084739.484375
-50.19,1767084739.5
-45.56,1767084739.515625
-37.79,1767084739.53125
-27.96,1767084739.546875
-17.52,1767084739.5625
-7.8,1767084739.578125
0.35,1767084739.59375
6.67,1767084739.609375
11.33,1767084739.625
14.64,1767084739.640625
16.86,1767084739.65625
18.1,1767084739.671875
18.41,1767084739.6875
17.91,1767084739.703125
16.89,1767084739.71875
15.71,1767084739.734375
14.72,1767084739.75
14.14,1767084739.765625
14.01,1767084739.78125
14.21,1767084739.796875
14.53,1767084739.8125
14.8,1767084739.828125
14.9,1767084739.84375
14.75,1767084739.859375
14.35,1767084739.875
13.71,1767084739.890625
12.84,1767084739.90625
11.72,1767084739.921875
10.34,1767084739.9375
8.65,1767084739.953125
6.66,1767084739.96875
4.4,1767084739.984375
1.92,1767084740.0
-0.66,1767084740.015625
-3.08,1767084740.03125
-5.0,1767084740.046875
-6.09,1767084740.0625
-6.16,1767084740.078125
-5.33,1767084740.09375
-4.06,1767084740.109375
-2.95,1767084740.125
-2.56,1767084740.140625
-3.1,1767084740.15625
-4.45,1767084740.171875
-6.24,1767084740.1875
-8.14,1767084740.203125
-9.97,1767084740.21875
-11.84,1767084740.234375
-13.96,1767084740.25
-16.55,1767084740.265625
-19.67,1767084740.28125
-23.29,1767084740.296875
-27.29,1767084740.3125
-31.47,1767084740.328125
-35.48,1767084740.34375
-38.71,1767084740.359375
-40.43,1767084740.375
-39.88,1767084740.390625
-36.63,1767084740.40625
-30.78,1767084740.421875
-23.02,1767084740.4375
-14.42,1767084740.453125
-6.14,1767084740.46875
0.91,1767084740.484375
6.21,1767084740.5
9.72,1767084740.515625
11.65,1767084740.53125
12.3,1767084740.546875
11.98,1767084740.5625
10.93,1767084740.578125
9.4,1767084740.59375
7.71,1767084740.609375
6.27,1767084740.625
5.42,1767084740.640625
5.37,1767084740.65625
6.1,1767084740.671875
7.4,1767084740.6875
8.96,1767084740.703125
10.47,1767084740.71875
11.71,1767084740.734375
12.52,1767084740.75
12.82,1767084740.765625
12.58,1767084740.78125
11.81,1767084740.796875
10.65,1767084740.8125
9.26,1767084740.828125
7.87,1767084740.84375
6.58,1767084740.859375
5.4,1767084740.875
4.2,1767084740.890625
2.82,1767084740.90625
1.22,1767084740.921875
-0.52,1767084740.9375
-2.23,1767084740.953125
-3.77,1767084740.96875
-5.12,1767084740.984375
-6.45,1767084741.0
-7.96,1767084741.015625
-9.79,1767084741.03125
-11.85,1767084741.046875
-13.86,1767084741.0625
-15.5,1767084741.078125
-16.6,1767084741.09375
-17.29,1767084741.109375
-17.92,1767084741.125
-18.92,1767084741.140625
-20.6,1767084741.15625
-23.04,1767084741.171875
-26.07,1767084741.1875
-29.43,1767084741.203125
-32.7,1767084741.21875
-35.39,1767084741.234375
-36.89,1767084741.25
-36.57,1767084741.265625
-33.97,1767084741.28125
-29.04,1767084741.296875
-22.23,1767084741.3125
-14.48,1767084741.328125
-6.86,1767084741.34375
-0.28,1767084741.359375
4.77,1767084741.375
8.28,1767084741.390625
10.46,1767084741.40625
11.61,1767084741.421875
11.9,1767084741.4375
11.44,1767084741.453125
10.42,1767084741.46875
9.14,1767084741.484375
8.02,1767084741.5
7.48,1767084741.515625
7.71,1767084741.53125
8.65,1767084741.546875
9.94,1767084741.5625
11.23,1767084741.578125
12.24,1767084741.59375
12.88,1767084741.609375
13.18,1767084741.625
13.27,1767084741.640625
13.19,1767084741.65625
12.88,1767084741.671875
12.28,1767084741.6875
11.3,1767084741.703125
9.98,1767084741.71875
8.41,1767084741.734375
6.71,1767084741.75
4.93,1767084741.765625
3.07,1767084741.78125
1.1,1767084741.796875
-0.98,1767084741.8125
-3.09,1767084741.828125
-5.11,1767084741.84375
-6.98,1767084741.859375
-8.72,1767084741.875
-10.44,1767084741.890625
-12.21,1767084741.90625
-13.98,1767084741.921875
-15.54,1767084741.9375
-16.64,1767084741.953125
-17.18,1767084741.96875
-17.35,1767084741.984375
-17.65,1767084742.0
-18.7,1767084742.015625
-20.93,1767084742.03125
-24.4,1767084742.046875
-28.65,1767084742.0625
-32.87,1767084742.078125
-36.07,1767084742.09375
-37.36,1767084742.109375
-36.27,1767084742.125
-32.76,1767084742.140625
-27.29,1767084742.15625
-20.63,1767084742.171875
-13.66,1767084742.1875
-7.1,1767084742.203125
-1.46,1767084742.21875
3.04,1767084742.234375
6.33,1767084742.25
8.42,1767084742.265625
9.31,1767084742.28125
9.07,1767084742.296875
7.9,1767084742.3125
6.22,1767084742.328125
4.54,1767084742.34375
3.38,1767084742.359375
3.08,1767084742.375
3.65,1767084742.390625
4.89,1767084742.40625
6.43,1767084742.421875
7.89,1767084742.4375
9.04,1767084742.453125
9.8,1767084742.46875
10.21,1767084742.484375
10.35,1767084742.5
10.3,1767084742.515625
10.05,1767084742.53125
9.56,1767084742.546875
8.72,1767084742.5625
7.43,1767084742.578125
5.72,1767084742.59375
3.73,1767084742.609375
1.72,1767084742.625
-0.03,1767084742.640625
-1.35,1767084742.65625
-2.27,1767084742.671875
-3.03,1767084742.6875
-3.93,1767084742.703125
-5.22,1767084742.71875
-6.95,1767084742.734375
-8.95,1767084742.75
-10.95,1767084742.765625
-12.71,1767084742.78125
-14.11,1767084742.796875
-15.26,1767084742.8125
-16.34,1767084742.828125
-17.62,1767084742.84375
-19.31,1767084742.859375
-21.55,1767084742.875
-24.41,1767084742.890625
-27.75,1767084742.90625
-31.21,1767084742.921875
-34.16,1767084742.9375
-35.79,1767084742.953125
-35.36,1767084742.96875
-32.42,1767084742.984375
-27.08,1767084743.0
-20.01,1767084743.015625
-12.18,1767084743.03125
-4.63,1767084743.046875
1.84,1767084743.0625
6.81,1767084743.078125
10.19,1767084743.09375
12.09,1767084743.109375
12.74,1767084743.125
12.37,1767084743.140625
11.25,1767084743.15625
9.72,1767084743.171875
8.18,1767084743.1875
7.01,1767084743.203125
6.46,1767084743.21875
6.66,1767084743.234375
7.48,1767084743.25
8.69,1767084743.265625
9.99,1767084743.28125
11.13,1767084743.296875
11.99,1767084743.3125
12.5,1767084743.328125
12.6,1767084743.34375
12.23,1767084743.359375
11.28,1767084743.375
9.68,1767084743.390625
7.53,1767084743.40625
5.08,1767084743.421875
2.63,1767084743.4375
0.49,1767084743.453125
-1.24,1767084743.46875
-2.66,1767084743.484375
-3.97,1767084743.5
-5.39,1767084743.515625
-7.04,1767084743.53125
-8.88,1767084743.546875
-10.78,1767084743.5625
-12.61,1767084743.578125
-14.27,1767084743.59375
-15.74,1767084743.609375
-17.11,1767084743.625
-18.5,1767084743.640625
-20.19,1767084743.65625
-22.45,1767084743.671875
-25.54,1767084743.6875
-29.47,1767084743.703125
-33.9,1767084743.71875
-38.09,1767084743.734375
-41.08,1767084743.75
-41.92,1767084743.765625
-40.06,1767084743.78125
-35.49,1767084743.796875
-28.77,1767084743.8125
-20.83,1767084743.828125
-12.71,1767084743.84375
-5.33,1767084743.859375
0.77,1767084743.875
5.37,1767084743.890625
8.5,1767084743.90625
10.35,1767084743.921875
11.11,1767084743.9375
10.95,1767084743.953125
10.07,1767084743.96875
8.73,1767084743.984375
7.29,1767084744.0
6.13,1767084744.015625
5.57,1767084744.03125
5.78,1767084744.046875
6.71,1767084744.0625
8.16,1767084744.078125
9.78,1767084744.09375
11.27,1767084744.109375
12.41,1767084744.125
13.11,1767084744.140625
13.33,1767084744.15625
13.14,1767084744.171875
12.57,1767084744.1875
11.62,1767084744.203125
10.3,1767084744.21875
8.57,1767084744.234375
6.38,1767084744.25
3.8,1767084744.265625
0.9,1767084744.28125
-2.14,1767084744.296875
-5.1,1767084744.3125
-7.82,1767084744.328125
-10.22,1767084744.34375
-12.33,1767084744.359375
-14.31,1767084744.375
-16.33,1767084744.390625
-18.54,1767084744.40625
-21.07,1767084744.421875
-23.96,1767084744.4375
-27.21,1767084744.453125
-30.73,1767084744.46875
-34.21,1767084744.484375
-37.1,1767084744.5
-38.66,1767084744.515625
-38.11,1767084744.53125
-34.95,1767084744.546875
-29.16,1767084744.5625
-21.26,1767084744.578125
-12.26,1767084744.59375
-3.25,1767084744.609375
4.81,1767084744.625
11.32,1767084744.640625
16.07,1767084744.65625
19.07,1767084744.671875
20.4,1767084744.6875
20.21,1767084744.703125
18.71,1767084744.71875
16.27,1767084744.734375
13.45,1767084744.75
10.93,1767084744.765625
9.26,1767084744.78125
8.77,1767084744.796875
9.4,1767084744.8125
10.77,1767084744.828125
12.32,1767084744.84375
13.62,1767084744.859375
14.38,1767084744.875
14.6,1767084744.890625
14.45,1767084744.90625
14.13,1767084744.921875
13.8,1767084744.9375
13.42,1767084744.953125
12.79,1767084744.96875
11.64,1767084744.984375
9.66,1767084745.0
6.7,1767084745.015625
2.84,1767084745.03125
-1.66,1767084745.046875
-6.38,1767084745.0625
-10.88,1767084745.078125
-14.92,1767084745.09375
-18.46,1767084745.109375
-21.69,1767084745.125
-24.95,1767084745.140625
-28.63,1767084745.15625
-32.9,1767084745.171875
-37.73,1767084745.1875
-42.65,1767084745.203125
-46.91,1767084745.21875
-49.56,1767084745.234375
-49.68,1767084745.25
-46.75,1767084745.265625
-40.75,1767084745.28125
-32.26,1767084745.296875
-22.23,1767084745.3125
-11.79,1767084745.328125
-1.96,1767084745.34375
6.5,1767084745.359375
13.13,1767084745.375
17.76,1767084745.390625
20.38,1767084745.40625
21.18,1767084745.421875
20.44,1767084745.4375
18.65,1767084745.453125
16.4,1767084745.46875
14.37,1767084745.484375
13.13,1767084745.5
13.04,1767084745.515625
14.08,1767084745.53125
15.94,1767084745.546875
18.07,1767084745.5625
19.93,1767084745.578125
21.17,1767084745.59375
21.65,1767084745.609375
21.5,1767084745.625
20.92,1767084745.640625
19.99,1767084745.65625
18.69,1767084745.671875
16.86,1767084745.6875
14.33,1767084745.703125
11.03,1767084745.71875
7.09,1767084745.734375
2.81,1767084745.75
-1.43,1767084745.765625
-5.29,1767084745.78125
-8.59,1767084745.796875
-11.45,1767084745.8125
-14.21,1767084745.828125
-17.38,1767084745.84375
-21.42,1767084745.859375
-26.53,1767084745.875
-32.48,1767084745.890625
-38.55,1767084745.90625
-43.59,1767084745.921875
-46.38,1767084745.9375
-45.83,1767084745.953125
-41.45,1767084745.96875
-33.46,1767084745.984375
-22.78,1767084746.0
-10.79,1767084746.015625
1.09,1767084746.03125
11.69,1767084746.046875
20.34,1767084746.0625
26.77,1767084746.078125
31.05,1767084746.09375
33.3,1767084746.109375
33.75,1767084746.125
32.67,1767084746.140625
30.5,1767084746.15625
27.82,1767084746.171875
25.3,1767084746.1875
23.54,1767084746.203125
22.88,1767084746.21875
23.39,1767084746.234375
24.74,1767084746.25
26.39,1767084746.265625
27.78,1767084746.28125
28.5,1767084746.296875
28.44,1767084746.3125
27.79,1767084746.328125
26.89,1767084746.34375
25.93,1767084746.359375
24.88,1767084746.375
23.41,1767084746.390625
21.11,1767084746.40625
17.81,1767084746.421875
13.66,1767084746.4375
9.17,1767084746.453125
4.97,1767084746.46875
1.4,1767084746.484375
-1.54,1767084746.5
-4.27,1767084746.515625
-7.36,1767084746.53125
-11.26,1767084746.546875
-16.15,1767084746.5625
-21.9,1767084746.578125
-28.04,1767084746.59375
-33.84,1767084746.609375
-38.35,1767084746.625
-40.57,1767084746.640625
-39.67,1767084746.65625
-35.23,1767084746.671875
-27.51,1767084746.6875
-17.38,1767084746.703125
-6.16,1767084746.71875
4.76,1767084746.734375
14.28,1767084746.75
21.72,1767084746.765625
26.84,1767084746.78125
29.7,1767084746.796875
30.53,1767084746.8125
29.69,1767084746.828125
27.65,1767084746.84375
24.98,1767084746.859375
22.37,1767084746.875
20.4,1767084746.890625
19.44,1767084746.90625
19.54,1767084746.921875
20.39,1767084746.9375
21.51,1767084746.953125
22.39,1767084746.96875
22.74,1767084746.984375
22.53,1767084747.0
22.03,1767084747.015625
21.53,1767084747.03125
21.16,1767084747.046875
20.7,1767084747.0625
19.68,1767084747.078125
17.58,1767084747.09375
14.15,1767084747.109375
9.61,1767084747.125
4.6,1767084747.140625
-0.09,1767084747.15625
-4.02,1767084747.171875
-7.16,1767084747.1875
-9.98,1767084747.203125
-13.16,1767084747.21875
-17.24,1767084747.234375
-22.48,1767084747.25
-28.76,1767084747.265625
-35.62,1767084747.28125
-42.2,1767084747.296875
-47.31,1767084747.3125
-49.53,1767084747.328125
-47.61,1767084747.34375
-40.97,1767084747.359375
-30.01,1767084747.375
-16.21,1767084747.390625
-1.59,1767084747.40625
11.87,1767084747.421875
22.86,1767084747.4375
30.92,1767084747.453125
36.28,1767084747.46875
39.43,1767084747.484375
40.74,1767084747.5
40.44,1767084747.515625
38.77,1767084747.53125
36.12,1767084747.546875
33.1,1767084747.5625
30.44,1767084747.578125
28.72,1767084747.59375
28.15,1767084747.609375
28.58,1767084747.625
29.56,1767084747.640625
30.59,1767084747.65625
31.29,1767084747.671875
31.46,1767084747.6875
31.13,1767084747.703125
30.35,1767084747.71875
29.12,1767084747.734375
27.32,1767084747.75
24.77,1767084747.765625
21.39,1767084747.78125
17.26,1767084747.796875
12.68,1767084747.8125
8.13,1767084747.828125
4.02,1767084747.84375
0.57,1767084747.859375
-2.32,1767084747.875
-5.07,1767084747.890625
-8.25,1767084747.90625
-12.38,1767084747.921875
-17.68,1767084747.9375
-23.91,1767084747.953125
-30.37,1767084747.96875
-35.96,1767084747.984375
-39.44,1767084748.0
-39.73,1767084748.015625
-36.24,1767084748.03125
-29.02,1767084748.046875
-18.86,1767084748.0625
-7.08,1767084748.078125
4.75,1767084748.09375
15.24,1767084748.109375
23.41,1767084748.125
28.86,1767084748.140625
31.66,1767084748.15625
32.23,1767084748.171875
31.11,1767084748.1875
28.92,1767084748.203125
26.27,1767084748.21875
23.74,1767084748.234375
21.85,1767084748.25
20.93,1767084748.265625
20.98,1767084748.28125
21.73,1767084748.296875
22.76,1767084748.3125
23.61,1767084748.328125
24.07,1767084748.34375
24.13,1767084748.359375
23.89,1767084748.375
23.39,1767084748.390625
22.53,1767084748.40625
21.01,1767084748.421875
18.57,1767084748.4375
15.11,1767084748.453125
10.86,1767084748.46875
6.25,1767084748.484375
1.77,1767084748.5
-2.22,1767084748.515625
-5.61,1767084748.53125
-8.59,1767084748.546875
-11.51,1767084748.5625
-14.81,1767084748.578125
-18.88,1767084748.59375
-23.94,1767084748.609375
-29.9,1767084748.625
-36.25,1767084748.640625
-41.99,1767084748.65625
-45.82,1767084748.671875
-46.48,1767084748.6875
-43.18,1767084748.703125
-35.96,1767084748.71875
-25.69,1767084748.734375
-13.87,1767084748.75
-2.13,1767084748.765625
8.22,1767084748.78125
16.47,1767084748.796875
22.47,1767084748.8125
26.42,1767084748.828125
28.64,1767084748.84375
29.41,1767084748.859375
28.97,1767084748.875
27.66,1767084748.890625
25.88,1767084748.90625
24.14,1767084748.921875
22.82,1767084748.9375
22.16,1767084748.953125
22.14,1767084748.96875
22.56,1767084748.984375
23.1,1767084749.0
23.48,1767084749.015625
23.5,1767084749.03125
23.11,1767084749.046875
22.34,1767084749.0625
21.26,1767084749.078125
19.87,1767084749.09375
18.1,1767084749.109375
15.78,1767084749.125
12.8,1767084749.140625
9.18,1767084749.15625
5.14,1767084749.171875
1.03,1767084749.1875
-2.78,1767084749.203125
-6.14,1767084749.21875
-9.17,1767084749.234375
-12.22,1767084749.25
-15.83,1767084749.265625
-20.39,1767084749.28125
-26.06,1767084749.296875
-32.58,1767084749.3125
-39.26,1767084749.328125
-44.99,1767084749.34375
-48.51,1767084749.359375
-48.71,1767084749.375
-44.98,1767084749.390625
-37.5,1767084749.40625
-27.26,1767084749.421875
-15.78,1767084749.4375
-4.7,1767084749.453125
4.82,1767084749.46875
12.23,1767084749.484375
17.64,1767084749.5
21.5,1767084749.515625
24.24,1767084749.53125
26.04,1767084749.546875
26.85,1767084749.5625
26.6,1767084749.578125
25.45,1767084749.59375
23.83,1767084749.609375
22.42,1767084749.625
21.78,1767084749.640625
22.14,1767084749.65625
23.3,1767084749.671875
24.75,1767084749.6875
25.93,1767084749.703125
26.44,1767084749.71875
26.21,1767084749.734375
25.33,1767084749.75
24.03,1767084749.765625
22.45,1767084749.78125
20.62,1767084749.796875
18.52,1767084749.8125
16.06,1767084749.828125
13.19,1767084749.84375
9.89,1767084749.859375
6.21,1767084749.875
2.25,1767084749.890625
-1.78,1767084749.90625
-5.64,1767084749.921875
-9.14,1767084749.9375
-12.2,1767084749.953125
-14.92,1767084749.96875
-17.6,1767084749.984375
-20.64,1767084750.0
-24.4,1767084750.015625
-29.15,1767084750.03125
-34.84,1767084750.046875
-40.98,1767084750.0625
-46.69,1767084750.078125
-50.77,1767084750.09375
-52.07,1767084750.109375
-49.81,1767084750.125
-43.84,1767084750.140625
-34.8,1767084750.15625
-23.9,1767084750.171875
-12.53,1767084750.1875
-1.95,1767084750.203125
7.09,1767084750.21875
14.37,1767084750.234375
20.04,1767084750.25
24.4,1767084750.265625
27.68,1767084750.28125
29.91,1767084750.296875
31.07,1767084750.3125
31.18,1767084750.328125
30.48,1767084750.34375
29.44,1767084750.359375
28.63,1767084750.375
28.47,1767084750.390625
29.06,1767084750.40625
30.11,1767084750.421875
31.13,1767084750.4375
31.7,1767084750.453125
31.69,1767084750.46875
31.27,1767084750.484375
30.75,1767084750.5
30.31,1767084750.515625
29.84,1767084750.53125
28.98,1767084750.546875
27.34,1767084750.5625
24.71,1767084750.578125
21.28,1767084750.59375
17.47,1767084750.609375
13.83,1767084750.625
10.73,1767084750.640625
8.23,1767084750.65625
6.12,1767084750.671875
4.02,1767084750.6875
1.58,1767084750.703125
-1.4,1767084750.71875
-4.9,1767084750.734375
-8.74,1767084750.75
-12.66,1767084750.765625
-16.42,1767084750.78125
-19.87,1767084750.796875
-22.95,1767084750.8125
-25.71,1767084750.828125
-28.37,1767084750.84375
-31.3,1767084750.859375
-34.91,1767084750.875
-39.58,1767084750.890625
-45.36,1767084750.90625
-51.77,1767084750.921875
-57.77,1767084750.9375
-61.99,1767084750.953125
-63.05,1767084750.96875
-60.13,1767084750.984375
-53.25,1767084751.0
-43.27,1767084751.015625
-31.59,1767084751.03125
-19.71,1767084751.046875
-8.78,1767084751.0625
0.58,1767084751.078125
8.25,1767084751.09375
14.38,1767084751.109375
19.17,1767084751.125
22.7,1767084751.140625
25.05,1767084751.15625
26.31,1767084751.171875
26.74,1767084751.1875
26.75,1767084751.203125
26.78,1767084751.21875
27.16,1767084751.234375
27.96,1767084751.25
29.0,1767084751.265625
29.95,1767084751.28125
30.53,1767084751.296875
30.62,1767084751.3125
30.31,1767084751.328125
29.84,1767084751.34375
29.46,1767084751.359375
29.25,1767084751.375
29.08,1767084751.390625
28.6,1767084751.40625
27.41,1767084751.421875
25.21,1767084751.4375
22.0,1767084751.453125
18.06,1767084751.46875
13.95,1767084751.484375
10.24,1767084751.5
7.27,1767084751.515625
5.09,1767084751.53125
3.37,1767084751.546875
1.63,1767084751.5625
-0.57,1767084751.578125
-3.43,1767084751.59375
-6.88,1767084751.609375
-10.58,1767084751.625
-14.18,1767084751.640625
-17.38,1767084751.65625
-20.11,1767084751.671875
-22.54,1767084751.6875
-25.0,1767084751.703125
-27.97,1767084751.71875
-31.85,1767084751.734375
-36.91,1767084751.75
-43.02,1767084751.765625
-49.65,1767084751.78125
-55.73,1767084751.796875
-59.93,1767084751.8125
-60.99,1767084751.828125
-58.09,1767084751.84375
-51.25,1767084751.859375
-41.34,1767084751.875
-29.8,1767084751.890625
-18.19,1767084751.90625
-7.72,1767084751.921875
1.01,1767084751.9375
7.92,1767084751.953125
13.25,1767084751.96875
17.22,1767084751.984375
19.96,1767084752.0
21.49,1767084752.015625
21.94,1767084752.03125
21.63,1767084752.046875
21.02,1767084752.0625
20.58,1767084752.078125
20.59,1767084752.09375
21.04,1767084752.109375
21.69,1767084752.125
22.23,1767084752.140625
22.49,1767084752.15625
22.46,1767084752.171875
22.26,1767084752.1875
22.05,1767084752.203125
21.84,1767084752.21875
21.52,1767084752.234375
20.93,1767084752.25
19.9,1767084752.265625
18.42,1767084752.28125
16.53,1767084752.296875
14.36,1767084752.3125
11.99,1767084752.328125
9.48,1767084752.34375
6.82,1767084752.359375
4.02,1767084752.375
1.1,1767084752.390625
-1.89,1767084752.40625
-4.84,1767084752.421875
-7.64,1767084752.4375
-10.13,1767084752.453125
-12.15,1767084752.46875
-13.59,1767084752.484375
-14.49,1767084752.5
-15.12,1767084752.515625
-15.97,1767084752.53125
-17.7,1767084752.546875
-20.85,1767084752.5625
-25.69,1767084752.578125
-31.98,1767084752.59375
-38.88,1767084752.609375
-45.07,1767084752.625
-49.07,1767084752.640625
-49.62,1767084752.65625
-46.16,1767084752.671875
-38.95,1767084752.6875
-29.04,1767084752.703125
-17.97,1767084752.71875
-7.25,1767084752.734375
2.0,1767084752.75
9.25,1767084752.765625
14.54,1767084752.78125
18.24,1767084752.796875
20.77,1767084752.8125
22.46,1767084752.828125
23.47,1767084752.84375
23.88,1767084752.859375
23.76,1767084752.875
23.26,1767084752.890625
22.64,1767084752.90625
22.19,1767084752.921875
22.15,1767084752.9375
22.58,1767084752.953125
23.34,1767084752.96875
24.19,1767084752.984375
24.81,1767084753.0
25.05,1767084753.015625
24.88,1767084753.03125
24.4,1767084753.046875
23.7,1767084753.0625
22.74,1767084753.078125
21.41,1767084753.09375
19.54,1767084753.109375
17.07,1767084753.125
14.1,1767084753.140625
10.91,1767084753.15625
7.8,1767084753.171875
4.99,1767084753.1875
2.47,1767084753.203125
-0.02,1767084753.21875
-2.78,1767084753.234375
-6.04,1767084753.25
-9.78,1767084753.265625
-13.71,1767084753.28125
-17.44,1767084753.296875
-20.63,1767084753.3125
-23.19,1767084753.328125
-25.36,1767084753.34375
-27.61,1767084753.359375
-30.5,1767084753.375
-34.5,1767084753.390625
-39.74,1767084753.40625
-45.93,1767084753.421875
-52.3,1767084753.4375
-57.72,1767084753.453125
-60.86,1767084753.46875
-60.57,1767084753.484375
-56.22,1767084753.5
-48.01,1767084753.515625
-36.93,1767084753.53125
-24.49,1767084753.546875
-12.31,1767084753.5625
-1.61,1767084753.578125
6.99,1767084753.59375
13.44,1767084753.609375
18.03,1767084753.625
21.12,1767084753.640625
22.99,1767084753.65625
23.81,1767084753.671875
23.76,1767084753.6875
23.17,1767084753.703125
22.41,1767084753.71875
21.88,1767084753.734375
21.86,1767084753.75
22.4,1767084753.765625
23.35,1767084753.78125
24.44,1767084753.796875
25.39,1767084753.8125
26.04,1767084753.828125
26.36,1767084753.84375
26.42,1767084753.859375
26.28,1767084753.875
25.89,1767084753.890625
25.09,1767084753.90625
23.71,1767084753.921875
21.64,1767084753.9375
18.99,1767084753.953125
16.05,1767084753.96875
13.18,1767084753.984375
10.65,1767084754.0
8.49,1767084754.015625
6.49,1767084754.03125
4.31,1767084754.046875
1.7,1767084754.0625
-1.47,1767084754.078125
-5.09,1767084754.09375
-8.9,1767084754.109375
-12.58,1767084754.125
-15.88,1767084754.140625
-18.68,1767084754.15625
-21.12,1767084754.171875
-23.54,1767084754.1875
-26.44,1767084754.203125
-30.29,1767084754.21875
-35.26,1767084754.234375
-41.02,1767084754.25
-46.64,1767084754.265625
-50.83,1767084754.28125
-52.33,1767084754.296875
-50.32,1767084754.3125
-44.73,1767084754.328125
-36.3,1767084754.34375
-26.32,1767084754.359375
-16.26,1767084754.375
-7.31,1767084754.390625
-0.17,1767084754.40625
4.99,1767084754.421875
8.32,1767084754.4375
10.19,1767084754.453125
10.94,1767084754.46875
10.88,1767084754.484375
10.35,1767084754.5
9.71,1767084754.515625
9.31,1767084754.53125
9.48,1767084754.546875
10.34,1767084754.5625
11.8,1767084754.578125
13.65,1767084754.59375
15.62,1767084754.609375
17.52,1767084754.625
19.27,1767084754.640625
20.82,1767084754.65625
22.06,1767084754.671875
22.82,1767084754.6875
22.93,1767084754.703125
22.26,1767084754.71875
20.87,1767084754.734375
18.96,1767084754.75
16.78,1767084754.765625
14.53,1767084754.78125
12.27,1767084754.796875
9.92,1767084754.8125
7.34,1767084754.828125
4.43,1767084754.84375
1.2,1767084754.859375
-2.22,1767084754.875
-5.66,1767084754.890625
-8.91,1767084754.90625
-11.88,1767084754.921875
-14.58,1767084754.9375
-17.15,1767084754.953125
-19.82,1767084754.96875
-22.92,1767084754.984375
-26.81,1767084755.0
-31.7,1767084755.015625
-37.51,1767084755.03125
-43.65,1767084755.046875
-49.03,1767084755.0625
-52.22,1767084755.078125
-51.92,1767084755.09375
-47.39,1767084755.109375
-38.87,1767084755.125
-27.49,1767084755.140625
-14.96,1767084755.15625
-3.01,1767084755.171875
7.13,1767084755.1875
14.93,1767084755.203125
20.44,1767084755.21875
24.0,1767084755.234375
25.99,1767084755.25
26.7,1767084755.265625
26.38,1767084755.28125
25.35,1767084755.296875
24.02,1767084755.3125
22.83,1767084755.328125
22.18,1767084755.34375
22.21,1767084755.359375
22.89,1767084755.375
23.97,1767084755.390625
25.08,1767084755.40625
25.88,1767084755.421875
26.12,1767084755.4375
25.7,1767084755.453125
24.68,1767084755.46875
23.24,1767084755.484375
21.58,1767084755.5
19.8,1767084755.515625
17.87,1767084755.53125
15.68,1767084755.546875
13.1,1767084755.5625
10.12,1767084755.578125
6.85,1767084755.59375
3.48,1767084755.609375
0.24,1767084755.625
-2.82,1767084755.640625
-5.7,1767084755.65625
-8.53,1767084755.671875
-11.37,1767084755.6875
-14.26,1767084755.703125
-17.16,1767084755.71875
-20.13,1767084755.734375
-23.37,1767084755.75
-27.19,1767084755.765625
-31.88,1767084755.78125
-37.42,1767084755.796875
-43.17,1767084755.8125
-47.96,1767084755.828125
-50.3,1767084755.84375
-48.97,1767084755.859375
-43.48,1767084755.875
-34.39,1767084755.890625
-23.07,1767084755.90625
-11.28,1767084755.921875
-0.53,1767084755.9375
8.26,1767084755.953125
14.83,1767084755.96875
19.34,1767084755.984375
22.09,1767084756.0
23.28,1767084756.015625
23.04,1767084756.03125
21.6,1767084756.046875
19.36,1767084756.0625
16.96,1767084756.078125
15.06,1767084756.09375
14.15,1767084756.109375
14.39,1767084756.125
15.6,1767084756.140625
17.29,1767084756.15625
18.96,1767084756.171875
20.2,1767084756.1875
20.85,1767084756.203125
20.96,1767084756.21875
20.65,1767084756.234375
20.05,1767084756.25
19.14,1767084756.265625
17.8,1767084756.28125
15.86,1767084756.296875
13.23,1767084756.3125
9.97,1767084756.328125
6.34,1767084756.34375
2.68,1767084756.359375
-0.7,1767084756.375
-3.63,1767084756.390625
-6.11,1767084756.40625
-8.29,1767084756.421875
-10.45,1767084756.4375
-12.85,1767084756.453125
-15.76,1767084756.46875
-19.41,1767084756.484375
-23.9,1767084756.5
-29.17,1767084756.515625
-34.83,1767084756.53125
-40.06,1767084756.546875
-43.74,1767084756.5625
-44.69,1767084756.578125
-42.09,1767084756.59375
-35.79,1767084756.609375
-26.47,1767084756.625
-15.45,1767084756.640625
-4.3,1767084756.65625
5.58,1767084756.671875
13.39,1767084756.6875
18.93,1767084756.703125
22.41,1767084756.71875
24.23,1767084756.734375
24.71,1767084756.75
24.03,1767084756.765625
22.33,1767084756.78125
19.94,1767084756.796875
17.33,1767084756.8125
15.15,1767084756.828125
13.95,1767084756.84375
13.98,1767084756.859375
15.05,1767084756.875
16.62,1767084756.890625
18.05,1767084756.90625
18.85,1767084756.921875
18.87,1767084756.9375
18.25,1767084756.953125
17.29,1767084756.96875
16.17,1767084756.984375
14.91,1767084757.0
13.3,1767084757.015625
11.1,1767084757.03125
8.19,1767084757.046875
4.67,1767084757.0625
0.85,1767084757.078125
-2.88,1767084757.09375
-6.15,1767084757.109375
-8.85,1767084757.125
-11.08,1767084757.140625
-13.17,1767084757.15625
-15.56,1767084757.171875
-18.69,1767084757.1875
-22.78,1767084757.203125
-27.77,1767084757.21875
-33.29,1767084757.234375
-38.63,1767084757.25
-42.82,1767084757.265625
-44.79,1767084757.28125
-43.65,1767084757.296875
-38.96,1767084757.3125
-30.92,1767084757.328125
-20.45,1767084757.34375
-8.89,1767084757.359375
2.29,1767084757.375
11.91,1767084757.390625
19.32,1767084757.40625
24.42,1767084757.421875
27.47,1767084757.4375
28.84,1767084757.453125
28.89,1767084757.46875
27.95,1767084757.484375
26.4,1767084757.5
24.71,1767084757.515625
23.46,1767084757.53125
23.17,1767084757.546875
24.06,1767084757.5625
26.01,1767084757.578125
28.6,1767084757.59375
31.26,1767084757.609375
33.48,1767084757.625
34.96,1767084757.640625
35.57,1767084757.65625
35.31,1767084757.671875
34.32,1767084757.6875
32.73,1767084757.703125
30.78,1767084757.71875
28.77,1767084757.734375
26.84,1767084757.75
24.85,1767084757.765625
22.3,1767084757.78125
18.46,1767084757.796875
12.6,1767084757.8125
4.35,1767084757.828125
-6.18,1767084757.84375
-18.4,1767084757.859375
-31.45,1767084757.875
-44.42,1767084757.890625
-56.37,1767084757.90625
-66.38,1767084757.921875
-73.49,1767084757.9375
-76.81,1767084757.953125
-75.75,1767084757.96875
-70.29,1767084757.984375
-61.15,1767084758.0
-49.74,1767084758.015625
-37.71,1767084758.03125
-26.59,1767084758.046875
-17.42,1767084758.0625
-10.6,1767084758.078125
-5.99,1767084758.09375
-3.21,1767084758.109375
-1.79,1767084758.125
-1.4,1767084758.140625
-1.7,1767084758.15625
-2.4,1767084758.171875
-3.13,1767084758.1875
-3.49,1767084758.203125
-3.16,1767084758.21875
-2.0,1767084758.234375
-0.08,1767084758.25
2.35,1767084758.265625
4.97,1767084758.28125
7.43,1767084758.296875
9.41,1767084758.3125
10.6,1767084758.328125
10.83,1767084758.34375
9.99,1767084758.359375
8.14,1767084758.375
5.46,1767084758.390625
2.2,1767084758.40625
-1.34,1767084758.421875
-4.89,1767084758.4375
-8.25,1767084758.453125
-11.35,1767084758.46875
-14.26,1767084758.484375
-17.24,1767084758.5
-20.64,1767084758.515625
-24.73,1767084758.53125
-29.51,1767084758.546875
-34.48,1767084758.5625
-38.66,1767084758.578125
-40.82,1767084758.59375
-39.84,1767084758.609375
-35.15,1767084758.625
-26.95,1767084758.640625
-16.23,1767084758.65625
-4.47,1767084758.671875
6.73,1767084758.6875
16.13,1767084758.703125
23.01,1767084758.71875
27.24,1767084758.734375
29.13,1767084758.75
29.19,1767084758.765625
27.89,1767084758.78125
25.68,1767084758.796875
22.91,1767084758.8125
19.98,1767084758.828125
17.32,1767084758.84375
15.4,1767084758.859375
14.5,1767084758.875
14.65,1767084758.890625
15.56,1767084758.90625
16.71,1767084758.921875
17.53,1767084758.9375
17.66,1767084758.953125
17.03,1767084758.96875
15.75,1767084758.984375
14.03,1767084759.0
12.02,1767084759.015625
9.72,1767084759.03125
7.09,1767084759.046875
4.09,1767084759.0625
0.85,1767084759.078125
-2.49,1767084759.09375
-5.75,1767084759.109375
-8.92,1767084759.125
-12.17,1767084759.140625
-15.82,1767084759.15625
-20.16,1767084759.171875
-25.26,1767084759.1875
-30.79,1767084759.203125
-35.97,1767084759.21875
-39.69,1767084759.234375
-40.76,1767084759.25
-38.33,1767084759.265625
-32.15,1767084759.28125
-22.82,1767084759.296875
-11.64,1767084759.3125
-0.29,1767084759.328125
9.68,1767084759.34375
17.28,1767084759.359375
22.19,1767084759.375
24.66,1767084759.390625
25.21,1767084759.40625
24.37,1767084759.421875
22.55,1767084759.4375
20.04,1767084759.453125
17.24,1767084759.46875
14.57,1767084759.484375
12.5,1767084759.5
11.34,1767084759.515625
11.18,1767084759.53125
11.83,1767084759.546875
12.92,1767084759.5625
13.99,1767084759.578125
14.63,1767084759.59375
14.58,1767084759.609375
13.65,1767084759.625
11.83,1767084759.640625
9.25,1767084759.65625
6.12,1767084759.671875
2.68,1767084759.6875
-0.87,1767084759.703125
-4.48,1767084759.71875
-8.18,1767084759.734375
-12.04,1767084759.75
-16.13,1767084759.765625
-20.55,1767084759.78125
-25.41,1767084759.796875
-30.78,1767084759.8125
-36.48,1767084759.828125
-41.93,1767084759.84375
-46.07,1767084759.859375
-47.59,1767084759.875
-45.39,1767084759.890625
-39.0,1767084759.90625
-28.88,1767084759.921875
-16.27,1767084759.9375
-2.84,1767084759.953125
9.71,1767084759.96875
20.09,1767084759.984375
27.52,1767084760.0
31.74,1767084760.015625
32.91,1767084760.03125
31.53,1767084760.046875
28.3,1767084760.0625
24.1,1767084760.078125
19.73,1767084760.09375
15.92,1767084760.109375
13.16,1767084760.125
11.7,1767084760.140625
11.56,1767084760.15625
12.49,1767084760.171875
14.03,1767084760.1875
15.59,1767084760.203125
16.54,1767084760.21875
16.4,1767084760.234375
14.97,1767084760.25
12.34,1767084760.265625
8.84,1767084760.28125
4.87,1767084760.296875
0.74,1767084760.3125
-3.37,1767084760.328125
-7.39,1767084760.34375
-11.42,1767084760.359375
-15.64,1767084760.375
-20.31,1767084760.390625
-25.68,1767084760.40625
-31.86,1767084760.421875
-38.61,1767084760.4375
-45.18,1767084760.453125
-50.32,1767084760.46875
-52.59,1767084760.484375
-50.76,1767084760.5
-44.35,1767084760.515625
-33.9,1767084760.53125
-20.84,1767084760.546875
-7.1,1767084760.5625
5.45,1767084760.578125
15.59,1767084760.59375
22.87,1767084760.609375
27.52,1767084760.625
30.11,1767084760.640625
31.16,1767084760.65625
30.95,1767084760.671875
29.61,1767084760.6875
27.3,1767084760.703125
24.38,1767084760.71875
21.48,1767084760.734375
19.31,1767084760.75
18.39,1767084760.765625
18.79,1767084760.78125
20.13,1767084760.796875
21.71,1767084760.8125
22.79,1767084760.828125
22.83,1767084760.84375
21.65,1767084760.859375
19.36,1767084760.875
16.25,1767084760.890625
12.58,1767084760.90625
8.56,1767084760.921875
4.33,1767084760.9375
-0.05,1767084760.953125
-4.51,1767084760.96875
-9.04,1767084760.984375
-13.69,1767084761.0
-18.69,1767084761.015625
-24.32,1767084761.03125
-30.78,1767084761.046875
-37.97,1767084761.0625
-45.24,1767084761.078125
-51.44,1767084761.09375
-55.06,1767084761.109375
-54.73,1767084761.125
-49.72,1767084761.140625
-40.26,1767084761.15625
-27.6,1767084761.171875
-13.54,1767084761.1875
0.08,1767084761.203125
11.92,1767084761.21875
21.37,1767084761.234375
28.38,1767084761.25
33.24,1767084761.265625
36.21,1767084761.28125
37.52,1767084761.296875
37.39,1767084761.3125
36.17,1767084761.328125
34.46,1767084761.34375
32.91,1767084761.359375
32.05,1767084761.375
32.05,1767084761.390625
32.64,1767084761.40625
33.26,1767084761.421875
33.35,1767084761.4375
32.58,1767084761.453125
31.03,1767084761.46875
29.07,1767084761.484375
27.14,1767084761.5
25.42,1767084761.515625
23.74,1767084761.53125
21.6,1767084761.546875
18.48,1767084761.5625
14.11,1767084761.578125
8.69,1767084761.59375
2.81,1767084761.609375
-2.78,1767084761.625
-7.52,1767084761.640625
-11.3,1767084761.65625
-14.52,1767084761.671875
-17.9,1767084761.6875
-22.21,1767084761.703125
-27.97,1767084761.71875
-35.21,1767084761.734375
-43.4,1767084761.75
-51.42,1767084761.765625
-57.83,1767084761.78125
-61.12,1767084761.796875
-60.08,1767084761.8125
-54.25,1767084761.828125
-44.06,1767084761.84375
-30.79,1767084761.859375
-16.21,1767084761.875
-2.04,1767084761.890625
10.43,1767084761.90625
20.6,1767084761.921875
28.44,1767084761.9375
34.26,1767084761.953125
38.37,1767084761.96875
40.98,1767084761.984375
42.23,1767084762.0
42.28,1767084762.015625
41.46,1767084762.03125
40.22,1767084762.046875
39.05,1767084762.0625
38.32,1767084762.078125
38.22,1767084762.09375
38.67,1767084762.109375
39.44,1767084762.125
40.21,1767084762.140625
40.65,1767084762.15625
40.51,1767084762.171875
39.67,1767084762.1875
38.12,1767084762.203125
35.96,1767084762.21875
33.33,1767084762.234375
30.32,1767084762.25
27.04,1767084762.265625
23.53,1767084762.28125
19.87,1767084762.296875
16.15,1767084762.3125
12.43,1767084762.328125
8.7,1767084762.34375
4.83,1767084762.359375
0.67,1767084762.375
-3.88,1767084762.390625
-8.77,1767084762.40625
-13.7,1767084762.421875
-18.31,1767084762.4375
-22.3,1767084762.453125
-25.63,1767084762.46875
-28.6,1767084762.484375
-31.79,1767084762.5
-35.85,1767084762.515625
-41.28,1767084762.53125
-48.14,1767084762.546875
-55.91,1767084762.5625
-63.36,1767084762.578125
-68.84,1767084762.59375
-70.63,1767084762.609375
-67.5,1767084762.625
-59.21,1767084762.640625
-46.65,1767084762.65625
-31.6,1767084762.671875
-16.19,1767084762.6875
-2.15,1767084762.703125
9.53,1767084762.71875
18.67,1767084762.734375
25.6,1767084762.75
30.74,1767084762.765625
34.35,1767084762.78125
36.52,1767084762.796875
37.38,1767084762.8125
37.24,1767084762.828125
36.65,1767084762.84375
36.22,1767084762.859375
36.37,1767084762.875
37.2,1767084762.890625
38.44,1767084762.90625
39.64,1767084762.921875
40.42,1767084762.9375
40.6,1767084762.953125
40.28,1767084762.96875
39.68,1767084762.984375
38.99,1767084763.0
38.17,1767084763.015625
36.94,1767084763.03125
34.95,1767084763.046875
31.95,1767084763.0625
27.97,1767084763.078125
23.38,1767084763.09375
18.72,1767084763.109375
14.47,1767084763.125
10.85,1767084763.140625
7.73,1767084763.15625
4.72,1767084763.171875
1.41,1767084763.1875
-2.44,1767084763.203125
-6.78,1767084763.21875
-11.29,1767084763.234375
-15.54,1767084763.25
-19.19,1767084763.265625
-22.17,1767084763.28125
-24.73,1767084763.296875
-27.35,1767084763.3125
-30.67,1767084763.328125
-35.18,1767084763.34375
-41.09,1767084763.359375
-48.12,1767084763.375
-55.47,1767084763.390625
-61.9,1767084763.40625
-65.93,1767084763.421875
-66.27,1767084763.4375
-62.14,1767084763.453125
-53.59,1767084763.46875
-41.57,1767084763.484375
-27.64,1767084763.5
-13.6,1767084763.515625
-0.9,1767084763.53125
9.64,1767084763.546875
17.87,1767084763.5625
24.12,1767084763.578125
28.77,1767084763.59375
32.02,1767084763.609375
33.91,1767084763.625
34.47,1767084763.640625
33.97,1767084763.65625
32.92,1767084763.671875
32.02,1767084763.6875
31.82,1767084763.703125
32.51,1767084763.71875
33.87,1767084763.734375
35.43,1767084763.75
36.71,1767084763.765625
37.4,1767084763.78125
37.43,1767084763.796875
36.87,1767084763.8125
35.86,1767084763.828125
34.46,1767084763.84375
32.7,1767084763.859375
30.59,1767084763.875
28.12,1767084763.890625
25.31,1767084763.90625
22.2,1767084763.921875
18.86,1767084763.9375
15.46,1767084763.953125
12.17,1767084763.96875
9.12,1767084763.984375
6.32,1767084764.0
3.59,1767084764.015625
0.65,1767084764.03125
-2.74,1767084764.046875
-6.64,1767084764.0625
-10.92,1767084764.078125
-15.23,1767084764.09375
-19.18,1767084764.109375
-22.5,1767084764.125
-25.2,1767084764.140625
-27.54,1767084764.15625
-29.98,1767084764.171875
-33.01,1767084764.1875
-37.05,1767084764.203125
-42.31,1767084764.21875
-48.65,1767084764.234375
-55.51,1767084764.25
-61.92,1767084764.265625
-66.56,1767084764.28125
-68.09,1767084764.296875
-65.51,1767084764.3125
-58.54,1767084764.328125
-47.78,1767084764.34375
-34.65,1767084764.359375
-20.98,1767084764.375
-8.39,1767084764.390625
2.05,1767084764.40625
10.04,1767084764.421875
15.86,1767084764.4375
20.03,1767084764.453125
22.96,1767084764.46875
24.86,1767084764.484375
25.78,1767084764.5
25.83,1767084764.515625
25.33,1767084764.53125
24.73,1767084764.546875
24.52,1767084764.5625
25.02,1767084764.578125
26.25,1767084764.59375
27.91,1767084764.609375
29.61,1767084764.625
30.99,1767084764.640625
31.82,1767084764.65625
32.08,1767084764.671875
31.88,1767084764.6875
31.35,1767084764.703125
30.55,1767084764.71875
29.43,1767084764.734375
27.87,1767084764.75
25.74,1767084764.765625
23.04,1767084764.78125
19.92,1767084764.796875
16.7,1767084764.8125
13.68,1767084764.828125
11.06,1767084764.84375
8.85,1767084764.859375
6.8,1767084764.875
4.61,1767084764.890625
1.96,1767084764.90625
-1.3,1767084764.921875
-5.13,1767084764.9375
-9.3,1767084764.953125
-13.49,1767084764.96875
-17.35,1767084764.984375
-20.67,1767084765.0
-23.41,1767084765.015625
-25.77,1767084765.03125
-28.14,1767084765.046875
-31.01,1767084765.0625
-34.84,1767084765.078125
-39.9,1767084765.09375
-46.11,1767084765.109375
-52.96,1767084765.125
-59.51,1767084765.140625
-64.52,1767084765.15625
-66.66,1767084765.171875
-64.95,1767084765.1875
-59.03,1767084765.203125
-49.35,1767084765.21875
-37.12,1767084765.234375
-23.91,1767084765.25
-11.31,1767084765.265625
-0.48,1767084765.28125
8.05,1767084765.296875
14.33,1767084765.3125
18.78,1767084765.328125
21.87,1767084765.34375
23.93,1767084765.359375
25.13,1767084765.375
25.52,1767084765.390625
25.29,1767084765.40625
24.73,1767084765.421875
24.3,1767084765.4375
24.39,1767084765.453125
25.16,1767084765.46875
26.48,1767084765.484375
27.98,1767084765.5
29.25,1767084765.515625
30.03,1767084765.53125
30.3,1767084765.546875
30.18,1767084765.5625
29.84,1767084765.578125
29.26,1767084765.59375
28.29,1767084765.609375
26.68,1767084765.625
24.28,1767084765.640625
21.11,1767084765.65625
17.41,1767084765.671875
13.56,1767084765.6875
9.93,1767084765.703125
6.8,1767084765.71875
4.22,1767084765.734375
2.07,1767084765.75
0.06,1767084765.765625
-2.12,1767084765.78125
-4.74,1767084765.796875
-7.9,1767084765.8125
-11.55,1767084765.828125
-15.43,1767084765.84375
-19.24,1767084765.859375
-22.66,1767084765.875
-25.54,1767084765.890625
-27.92,1767084765.90625
-30.03,1767084765.921875
-32.3,1767084765.9375
-35.14,1767084765.953125
-38.87,1767084765.96875
-43.6,1767084765.984375
-49.08,1767084766.0
-54.69,1767084766.015625
-59.43,1767084766.03125
-62.14,1767084766.046875
-61.69,1767084766.0625
-57.43,1767084766.078125
-49.38,1767084766.09375
-38.36,1767084766.109375
-25.75,1767084766.125
-13.13,1767084766.140625
-1.85,1767084766.15625
7.3,1767084766.171875
14.11,1767084766.1875
18.8,1767084766.203125
21.76,1767084766.21875
23.36,1767084766.234375
23.89,1767084766.25
23.64,1767084766.265625
22.97,1767084766.28125
22.32,1767084766.296875
22.13,1767084766.3125
22.63,1767084766.328125
23.81,1767084766.34375
25.41,1767084766.359375
27.05,1767084766.375
28.33,1767084766.390625
29.03,1767084766.40625
29.09,1767084766.421875
28.68,1767084766.4375
28.04,1767084766.453125
27.37,1767084766.46875
26.71,1767084766.484375
25.89,1767084766.5
24.6,1767084766.515625
22.52,1767084766.53125
19.56,1767084766.546875
15.92,1767084766.5625
12.05,1767084766.578125
8.47,1767084766.59375
5.51,1767084766.609375
3.19,1767084766.625
1.16,1767084766.640625
-1.06,1767084766.65625
-3.84,1767084766.671875
-7.33,1767084766.6875
-11.32,1767084766.703125
-15.45,1767084766.71875
-19.29,1767084766.734375
-22.56,1767084766.75
-25.19,1767084766.765625
-27.37,1767084766.78125
-29.49,1767084766.796875
-32.08,1767084766.8125
-35.63,1767084766.828125
-40.44,1767084766.84375
-46.37,1767084766.859375
-52.72,1767084766.875
-58.29,1767084766.890625
-61.63,1767084766.90625
-61.49,1767084766.921875
-57.26,1767084766.9375
-49.17,1767084766.953125
-38.26,1767084766.96875
-26.05,1767084766.984375
-14.11,1767084767.0
-3.62,1767084767.015625
4.76,1767084767.03125
10.91,1767084767.046875
14.97,1767084767.0625
17.24,1767084767.078125
18.03,1767084767.09375
17.65,1767084767.109375
16.53,1767084767.125
15.17,1767084767.140625
14.06,1767084767.15625
13.59,1767084767.171875
13.9,1767084767.1875
14.89,1767084767.203125
16.28,1767084767.21875
17.72,1767084767.234375
18.88,1767084767.25
19.54,1767084767.265625
19.62,1767084767.28125
19.17,1767084767.296875
18.36,1767084767.3125
17.42,1767084767.328125
16.58,1767084767.34375
15.96,1767084767.359375
15.56,1767084767.375
15.3,1767084767.390625
15.09,1767084767.40625
14.81,1767084767.421875
14.41,1767084767.4375
13.76,1767084767.453125
12.65,1767084767.46875
10.83,1767084767.484375
8.13,1767084767.5
4.61,1767084767.515625
0.54,1767084767.53125
-3.63,1767084767.546875
-7.51,1767084767.5625
-10.97,1767084767.578125
-14.16,1767084767.59375
-17.47,1767084767.609375
-21.35,1767084767.625
-26.12,1767084767.640625
-31.89,1767084767.65625
-38.44,1767084767.671875
-45.16,1767084767.6875
-51.05,1767084767.703125
-54.87,1767084767.71875
-55.38,1767084767.734375
-51.81,1767084767.75
-44.23,1767084767.765625
-33.6,1767084767.78125
-21.52,1767084767.796875
-9.76,1767084767.8125
0.34,1767084767.828125
8.13,1767084767.84375
13.63,1767084767.859375
17.26,1767084767.875
19.45,1767084767.890625
20.49,1767084767.90625
20.48,1767084767.921875
19.56,1767084767.9375
18.03,1767084767.953125
16.36,1767084767.96875
15.14,1767084767.984375
14.8,1767084768.0
15.54,1767084768.015625
17.15,1767084768.03125
19.18,1767084768.046875
21.09,1767084768.0625
22.39,1767084768.078125
22.89,1767084768.09375
22.59,1767084768.109375
21.66,1767084768.125
20.27,1767084768.140625
18.54,1767084768.15625
16.45,1767084768.171875
13.94,1767084768.1875
10.98,1767084768.203125
7.64,1767084768.21875
4.05,1767084768.234375
0.4,1767084768.25
-3.15,1767084768.265625
-6.53,1767084768.28125
-9.67,1767084768.296875
-12.58,1767084768.3125
-15.24,1767084768.328125
-17.69,1767084768.34375
-20.1,1767084768.359375
-22.72,1767084768.375
-25.93,1767084768.390625
-30.03,1767084768.40625
-35.11,1767084768.421875
-40.82,1767084768.4375
-46.35,1767084768.453125
-50.53,1767084768.46875
-52.12,1767084768.484375
-50.2,1767084768.5
-44.49,1767084768.515625
-35.5,1767084768.53125
-24.4,1767084768.546875
-12.73,1767084768.5625
-1.9,1767084768.578125
7.08,1767084768.59375
13.76,1767084768.609375
18.23,1767084768.625
20.73,1767084768.640625
21.58,1767084768.65625
21.05,1767084768.671875
19.39,1767084768.6875
17.05,1767084768.703125
14.63,1767084768.71875
12.86,1767084768.734375
12.28,1767084768.75
13.11,1767084768.765625
15.02,1767084768.78125
17.35,1767084768.796875
19.38,1767084768.8125
20.58,1767084768.828125
20.84,1767084768.84375
20.32,1767084768.859375
19.33,1767084768.875
18.03,1767084768.890625
16.39,1767084768.90625
14.2,1767084768.921875
11.28,1767084768.9375
7.6,1767084768.953125
3.4,1767084768.96875
-0.93,1767084768.984375
-4.99,1767084769.0
-8.52,1767084769.015625
-11.54,1767084769.03125
-14.25,1767084769.046875
-16.95,1767084769.0625
-19.95,1767084769.078125
-23.53,1767084769.09375
-27.85,1767084769.109375
-32.93,1767084769.125
-38.58,1767084769.140625
-44.33,1767084769.15625
-49.46,1767084769.171875
-53.04,1767084769.1875
-54.17,1767084769.203125
-52.23,1767084769.21875
-47.1,1767084769.234375
-39.14,1767084769.25
-29.07,1767084769.265625
-17.83,1767084769.28125
-6.36,1767084769.296875
4.5,1767084769.3125
14.09,1767084769.328125
21.92,1767084769.34375
27.72,1767084769.359375
31.5,1767084769.375
33.49,1767084769.390625
34.14,1767084769.40625
34.0,1767084769.421875
33.55,1767084769.4375
33.15,1767084769.453125
32.99,1767084769.46875
33.03,1767084769.484375
33.14,1767084769.5
33.07,1767084769.515625
32.62,1767084769.53125
31.62,1767084769.546875
30.0,1767084769.5625
27.79,1767084769.578125
25.04,1767084769.59375
21.81,1767084769.609375
18.13,1767084769.625
14.04,1767084769.640625
9.59,1767084769.65625
4.92,1767084769.671875
0.22,1767084769.6875
-4.33,1767084769.703125
-8.63,1767084769.71875
-12.74,1767084769.734375
-16.89,1767084769.75
-21.42,1767084769.765625
-26.63,1767084769.78125
-32.6,1767084769.796875
-39.03,1767084769.8125
-45.1,1767084769.828125
-49.64,1767084769.84375
-51.35,1767084769.859375
-49.21,1767084769.875
-42.92,1767084769.890625
-33.06,1767084769.90625
-21.02,1767084769.921875
-8.55,1767084769.9375
2.76,1767084769.953125
11.86,1767084769.96875
18.39,1767084769.984375
22.51,1767084770.0
24.57,1767084770.015625
24.92,1767084770.03125
23.82,1767084770.046875
21.52,1767084770.0625
18.44,1767084770.078125
15.12,1767084770.09375
12.23,1767084770.109375
10.29,1767084770.125
9.56,1767084770.140625
10.03,1767084770.15625
11.36,1767084770.171875
13.07,1767084770.1875
14.6,1767084770.203125
15.47,1767084770.21875
15.34,1767084770.234375
14.07,1767084770.25
11.74,1767084770.265625
8.6,1767084770.28125
4.95,1767084770.296875
1.06,1767084770.3125
-2.86,1767084770.328125
-6.67,1767084770.34375
-10.36,1767084770.359375
-14.03,1767084770.375
-17.93,1767084770.390625
-22.45,1767084770.40625
-27.99,1767084770.421875
-34.66,1767084770.4375
-42.04,1767084770.453125
-49.06,1767084770.46875
-54.11,1767084770.484375
-55.56,1767084770.5
-52.33,1767084770.515625
-44.36,1767084770.53125
-32.72,1767084770.546875
-19.21,1767084770.5625
-5.85,1767084770.578125
5.8,1767084770.59375
14.92,1767084770.609375
21.41,1767084770.625
25.55,1767084770.640625
27.77,1767084770.65625
28.39,1767084770.671875
27.72,1767084770.6875
26.1,1767084770.703125
23.99,1767084770.71875
21.89,1767084770.734375
20.25,1767084770.75
19.32,1767084770.765625
19.12,1767084770.78125
19.5,1767084770.796875
20.21,1767084770.8125
20.92,1767084770.828125
21.31,1767084770.84375
21.06,1767084770.859375
19.95,1767084770.875
17.87,1767084770.890625
14.88,1767084770.90625
11.19,1767084770.921875
7.08,1767084770.9375
2.81,1767084770.953125
-1.46,1767084770.96875
-5.64,1767084770.984375
-9.78,1767084771.0
-14.01,1767084771.015625
-18.6,1767084771.03125
-23.81,1767084771.046875
-29.88,1767084771.0625
-36.76,1767084771.078125
-43.92,1767084771.09375
-50.32,1767084771.109375
-54.5,1767084771.125
-55.04,1767084771.140625
-51.03,1767084771.15625
-42.46,1767084771.171875
-30.32,1767084771.1875
-16.35,1767084771.203125
-2.56,1767084771.21875
9.45,1767084771.234375
18.78,1767084771.25
25.3,1767084771.265625
29.45,1767084771.28125
31.83,1767084771.296875
32.92,1767084771.3125
33.0,1767084771.328125
32.26,1767084771.34375
30.92,1767084771.359375
29.39,1767084771.375
28.08,1767084771.390625
27.31,1767084771.40625
27.12,1767084771.421875
27.26,1767084771.4375
27.41,1767084771.453125
27.29,1767084771.46875
26.85,1767084771.484375
26.16,1767084771.5
25.25,1767084771.515625
23.96,1767084771.53125
22.01,1767084771.546875
19.06,1767084771.5625
15.01,1767084771.578125
10.1,1767084771.59375
4.81,1767084771.609375
-0.29,1767084771.625
-4.79,1767084771.640625
-8.66,1767084771.65625
-12.25,1767084771.671875
-16.14,1767084771.6875
-20.95,1767084771.703125
-27.06,1767084771.71875
-34.44,1767084771.734375
-42.45,1767084771.75
-49.93,1767084771.765625
-55.33,1767084771.78125
-57.15,1767084771.796875
-54.39,1767084771.8125
-46.93,1767084771.828125
-35.61,1767084771.84375
-22.05,1767084771.859375
-8.18,1767084771.875
4.35,1767084771.890625
14.56,1767084771.90625
22.24,1767084771.921875
27.76,1767084771.9375
31.71,1767084771.953125
34.48,1767084771.96875
36.23,1767084771.984375
36.93,1767084772.0
36.62,1767084772.015625
35.65,1767084772.03125
34.59,1767084772.046875
34.06,1767084772.0625
34.41,1767084772.078125
35.56,1767084772.09375
36.98,1767084772.109375
37.99,1767084772.125
38.04,1767084772.140625
36.97,1767084772.15625
35.01,1767084772.171875
32.65,1767084772.1875
30.29,1767084772.203125
28.12,1767084772.21875
25.98,1767084772.234375
23.48,1767084772.25
20.24,1767084772.265625
16.05,1767084772.28125
11.03,1767084772.296875
5.58,1767084772.3125
0.17,1767084772.328125
-4.77,1767084772.34375
-9.06,1767084772.359375
-12.78,1767084772.375
-16.25,1767084772.390625
-19.9,1767084772.40625
-24.25,1767084772.421875
-29.69,1767084772.4375
-36.38,1767084772.453125
-44.05,1767084772.46875
-51.89,1767084772.484375
-58.55,1767084772.5
-62.49,1767084772.515625
-62.38,1767084772.53125
-57.58,1767084772.546875
-48.37,1767084772.5625
-35.93,1767084772.578125
-21.89,1767084772.59375
-7.91,1767084772.609375
4.78,1767084772.625
15.52,1767084772.640625
24.16,1767084772.65625
30.8,1767084772.671875
35.64,1767084772.6875
38.84,1767084772.703125
40.55,1767084772.71875
41.01,1767084772.734375
40.6,1767084772.75
39.8,1767084772.765625
39.06,1767084772.78125
38.71,1767084772.796875
38.8,1767084772.8125
39.15,1767084772.828125
39.44,1767084772.84375
39.36,1767084772.859375
38.78,1767084772.875
37.71,1767084772.890625
36.29,1767084772.90625
34.67,1767084772.921875
32.88,1767084772.9375
30.84,1767084772.953125
28.42,1767084772.96875
25.54,1767084772.984375
22.26,1767084773.0
18.78,1767084773.015625
15.36,1767084773.03125
12.19,1767084773.046875
9.27,1767084773.0625
6.43,1767084773.078125
3.33,1767084773.09375
-0.29,1767084773.109375
-4.5,1767084773.125
-9.11,1767084773.140625
-13.7,1767084773.15625
-17.87,1767084773.171875
-21.46,1767084773.1875
-24.63,1767084773.203125
-27.92,1767084773.21875
-31.97,1767084773.234375
-37.31,1767084773.25
-44.07,1767084773.265625
-51.76,1767084773.28125
-59.34,1767084773.296875
-65.27,1767084773.3125
-67.98,1767084773.328125
-66.27,1767084773.34375
-59.78,1767084773.359375
-49.12,1767084773.375
-35.73,1767084773.390625
-21.47,1767084773.40625
-7.99,1767084773.421875
3.63,1767084773.4375
13.05,1767084773.453125
20.46,1767084773.46875
26.29,1767084773.484375
30.84,1767084773.5
34.23,1767084773.515625
36.41,1767084773.53125
37.36,1767084773.546875
37.25,1767084773.5625
36.46,1767084773.578125
35.5,1767084773.59375
34.83,1767084773.609375
34.69,1767084773.625
35.07,1767084773.640625
35.7,1767084773.65625
36.27,1767084773.671875
36.58,1767084773.6875
36.6,1767084773.703125
36.36,1767084773.71875
35.93,1767084773.734375
35.18,1767084773.75
33.89,1767084773.765625
31.78,1767084773.78125
28.78,1767084773.796875
25.08,1767084773.8125
21.06,1767084773.828125
17.18,1767084773.84375
13.71,1767084773.859375
10.69,1767084773.875
7.87,1767084773.890625
4.94,1767084773.90625
1.62,1767084773.921875
-2.16,1767084773.9375
-6.24,1767084773.953125
-10.34,1767084773.96875
-14.16,1767084773.984375
-17.56,1767084774.0
-20.6,1767084774.015625
-23.62,1767084774.03125
-27.13,1767084774.046875
-31.66,1767084774.0625
-37.45,1767084774.078125
-44.27,1767084774.09375
-51.28,1767084774.109375
-57.13,1767084774.125
-60.34,1767084774.140625
-59.68,1767084774.15625
-54.63,1767084774.171875
-45.61,1767084774.1875
-33.85,1767084774.203125
-20.99,1767084774.21875
-8.63,1767084774.234375
2.12,1767084774.25
10.81,1767084774.265625
17.51,1767084774.28125
22.57,1767084774.296875
26.23,1767084774.3125
28.58,1767084774.328125
29.58,1767084774.34375
29.31,1767084774.359375
28.14,1767084774.375
26.69,1767084774.390625
25.7,1767084774.40625
25.64,1767084774.421875
26.59,1767084774.4375
28.16,1767084774.453125
29.78,1767084774.46875
30.97,1767084774.484375
31.52,1767084774.5
31.53,1767084774.515625
31.24,1767084774.53125
30.79,1767084774.546875
30.14,1767084774.5625
29.06,1767084774.578125
27.33,1767084774.59375
24.82,1767084774.609375
21.68,1767084774.625
18.22,1767084774.640625
14.83,1767084774.65625
11.79,1767084774.671875
9.18,1767084774.6875
6.82,1767084774.703125
4.44,1767084774.71875
1.72,1767084774.734375
-1.51,1767084774.75
-5.25,1767084774.765625
-9.32,1767084774.78125
-13.43,1767084774.796875
-17.29,1767084774.8125
-20.63,1767084774.828125
-23.42,1767084774.84375
-25.83,1767084774.859375
-28.27,1767084774.875
-31.31,1767084774.890625
-35.41,1767084774.90625
-40.75,1767084774.921875
-46.94,1767084774.9375
-52.99,1767084774.953125
-57.53,1767084774.96875
-59.13,1767084774.984375
-56.86,1767084775.0
-50.5,1767084775.015625
-40.74,1767084775.03125
-28.92,1767084775.046875
-16.65,1767084775.0625
-5.31,1767084775.078125
4.22,1767084775.09375
11.66,1767084775.109375
17.14,1767084775.125
20.95,1767084775.140625
23.37,1767084775.15625
24.59,1767084775.171875
24.79,1767084775.1875
24.22,1767084775.203125
23.24,1767084775.21875
22.25,1767084775.234375
21.64,1767084775.25
21.63,1767084775.265625
22.31,1767084775.28125
23.59,1767084775.296875
25.24,1767084775.3125
26.93,1767084775.328125
28.29,1767084775.34375
28.98,1767084775.359375
28.83,1767084775.375
27.82,1767084775.390625
26.07,1767084775.40625
23.78,1767084775.421875
21.07,1767084775.4375
18.06,1767084775.453125
14.79,1767084775.46875
11.31,1767084775.484375
7.73,1767084775.5
4.17,1767084775.515625
0.71,1767084775.53125
-2.63,1767084775.546875
-5.87,1767084775.5625
-9.04,1767084775.578125
-12.06,1767084775.59375
-14.87,1767084775.609375
-17.38,1767084775.625
-19.65,1767084775.640625
-21.9,1767084775.65625
-24.45,1767084775.671875
-27.68,1767084775.6875
-31.8,1767084775.703125
-36.68,1767084775.71875
-41.75,1767084775.734375
-46.07,1767084775.75
-48.49,1767084775.765625
-48.0,1767084775.78125
-44.09,1767084775.796875
-36.94,1767084775.8125
-27.4,1767084775.828125
-16.74,1767084775.84375
-6.33,1767084775.859375
2.81,1767084775.875
10.1,1767084775.890625
15.45,1767084775.90625
19.0,1767084775.921875
21.01,1767084775.9375
21.66,1767084775.953125
21.15,1767084775.96875
19.77,1767084775.984375
17.94,1767084776.0
16.23,1767084776.015625
15.13,1767084776.03125
14.94,1767084776.046875
15.59,1767084776.0625
16.68,1767084776.078125
17.68,1767084776.09375
18.13,1767084776.109375
17.85,1767084776.125
16.96,1767084776.140625
15.72,1767084776.15625
14.37,1767084776.171875
13.0,1767084776.1875
11.5,1767084776.203125
9.65,1767084776.21875
7.27,1767084776.234375
4.24,1767084776.25
0.62,1767084776.265625
-3.39,1767084776.28125
-7.42,1767084776.296875
-11.12,1767084776.3125
-14.2,1767084776.328125
-16.62,1767084776.34375
-18.62,1767084776.359375
-20.64,1767084776.375
-23.18,1767084776.390625
-26.6,1767084776.40625
-31.02,1767084776.421875
-36.07,1767084776.4375
-41.11,1767084776.453125
-45.19,1767084776.46875
-47.31,1767084776.484375
-46.59,1767084776.5
-42.55,1767084776.515625
-35.32,1767084776.53125
-25.64,1767084776.546875
-14.79,1767084776.5625
-4.2,1767084776.578125
4.89,1767084776.59375
11.72,1767084776.609375
16.11,1767084776.625
18.29,1767084776.640625
18.69,1767084776.65625
17.77,1767084776.671875
15.99,1767084776.6875
13.78,1767084776.703125
11.61,1767084776.71875
10.0,1767084776.734375
9.33,1767084776.75
9.75,1767084776.765625
11.11,1767084776.78125
12.98,1767084776.796875
14.74,1767084776.8125
15.9,1767084776.828125
16.17,1767084776.84375
15.6,1767084776.859375
14.46,1767084776.875
13.12,1767084776.890625
11.77,1767084776.90625
10.38,1767084776.921875
8.7,1767084776.9375
6.4,1767084776.953125
3.29,1767084776.96875
-0.53,1767084776.984375
-4.72,1767084777.0
-8.8,1767084777.015625
-12.37,1767084777.03125
-15.27,1767084777.046875
-17.67,1767084777.0625
-19.95,1767084777.078125
-22.6,1767084777.09375
-26.04,1767084777.109375
-30.49,1767084777.125
-35.87,1767084777.140625
-41.66,1767084777.15625
-46.98,1767084777.171875
-50.67,1767084777.1875
-51.59,1767084777.203125
-48.94,1767084777.21875
-42.55,1767084777.234375
-33.04,1767084777.25
-21.68,1767084777.265625
-10.03,1767084777.28125
0.49,1767084777.296875
9.03,1767084777.3125
15.31,1767084777.328125
19.55,1767084777.34375
22.17,1767084777.359375
23.53,1767084777.375
23.88,1767084777.390625
23.37,1767084777.40625
22.19,1767084777.421875
20.7,1767084777.4375
19.32,1767084777.453125
18.44,1767084777.46875
18.25,1767084777.484375
18.74,1767084777.5
19.67,1767084777.515625
20.7,1767084777.53125
21.53,1767084777.546875
21.93,1767084777.5625
21.78,1767084777.578125
21.04,1767084777.59375
19.76,1767084777.609375
18.04,1767084777.625
15.99,1767084777.640625
13.66,1767084777.65625
11.04,1767084777.671875
8.06,1767084777.6875
4.67,1767084777.703125
0.9,1767084777.71875
-3.03,1767084777.734375
-6.86,1767084777.75
-10.39,1767084777.765625
-13.56,1767084777.78125
-16.53,1767084777.796875
-19.52,1767084777.8125
-22.76,1767084777.828125
-26.41,1767084777.84375
-30.55,1767084777.859375
-35.23,1767084777.875
-40.42,1767084777.890625
-45.82,1767084777.90625
-50.76,1767084777.921875
-54.22,1767084777.9375
-55.04,1767084777.953125
-52.35,1767084777.96875
-45.93,1767084777.984375
-36.39,1767084778.0
-24.97,1767084778.015625
-13.16,1767084778.03125
-2.25,1767084778.046875
6.93,1767084778.0625
14.06,1767084778.078125
19.16,1767084778.09375
22.41,1767084778.109375
24.03,1767084778.125
24.28,1767084778.140625
23.45,1767084778.15625
22.03,1767084778.171875
20.5,1767084778.1875
19.35,1767084778.203125
18.88,1767084778.21875
19.15,1767084778.234375
19.96,1767084778.25
20.97,1767084778.265625
21.85,1767084778.28125
22.38,1767084778.296875
22.47,1767084778.3125
22.12,1767084778.328125
21.36,1767084778.34375
20.23,1767084778.359375
18.76,1767084778.375
17.02,1767084778.390625
15.08,1767084778.40625
13.0,1767084778.421875
10.74,1767084778.4375
8.2,1767084778.453125
5.27,1767084778.46875
1.95,1767084778.484375
-1.62,1767084778.5
-5.21,1767084778.515625
-8.61,1767084778.53125
-11.7,1767084778.546875
-14.54,1767084778.5625
-17.34,1767084778.578125
-20.37,1767084778.59375
-23.88,1767084778.609375
-28.09,1767084778.625
-33.13,1767084778.640625
-38.94,1767084778.65625
-45.11,1767084778.671875
-50.8,1767084778.6875
-54.86,1767084778.703125
-56.03,1767084778.71875
-53.39,1767084778.734375
-46.75,1767084778.75
-36.75,1767084778.765625
-24.78,1767084778.78125
-12.49,1767084778.796875
-1.36,1767084778.8125
7.67,1767084778.828125
14.36,1767084778.84375
18.92,1767084778.859375
21.81,1767084778.875
23.46,1767084778.890625
24.16,1767084778.90625
24.11,1767084778.921875
23.5,1767084778.9375
22.66,1767084778.953125
21.95,1767084778.96875
21.72,1767084778.984375
22.13,1767084779.0
23.13,1767084779.015625
24.45,1767084779.03125
25.7,1767084779.046875
26.56,1767084779.0625
26.82,1767084779.078125
26.38,1767084779.09375
25.26,1767084779.109375
23.55,1767084779.125
21.39,1767084779.140625
18.94,1767084779.15625
16.31,1767084779.171875
13.58,1767084779.1875
10.7,1767084779.203125
7.65,1767084779.21875
4.39,1767084779.234375
0.95,1767084779.25
-2.51,1767084779.265625
-5.86,1767084779.28125
-9.0,1767084779.296875
-11.92,1767084779.3125
-14.72,1767084779.328125
-17.55,1767084779.34375
-20.6,1767084779.359375
-24.01,1767084779.375
-27.97,1767084779.390625
-32.6,1767084779.40625
-37.92,1767084779.421875
-43.68,1767084779.4375
-49.27,1767084779.453125
-53.67,1767084779.46875
-55.68,1767084779.484375
-54.26,1767084779.5
-48.89,1767084779.515625
-39.84,1767084779.53125
-28.18,1767084779.546875
-15.52,1767084779.5625
-3.54,1767084779.578125
6.5,1767084779.59375
14.01,1767084779.609375
19.05,1767084779.625
22.19,1767084779.640625
24.04,1767084779.65625
25.01,1767084779.671875
25.29,1767084779.6875
24.9,1767084779.703125
23.96,1767084779.71875
22.81,1767084779.734375
21.93,1767084779.75
21.79,1767084779.765625
22.59,1767084779.78125
24.12,1767084779.796875
25.93,1767084779.8125
27.54,1767084779.828125
28.61,1767084779.84375
29.08,1767084779.859375
29.07,1767084779.875
28.69,1767084779.890625
27.96,1767084779.90625
26.8,1767084779.921875
25.09,1767084779.9375
22.8,1767084779.953125
19.99,1767084779.96875
16.81,1767084779.984375
13.43,1767084780.0
9.93,1767084780.015625
6.35,1767084780.03125
2.74,1767084780.046875
-0.82,1767084780.0625
-4.24,1767084780.078125
-7.44,1767084780.09375
-10.4,1767084780.109375
-13.28,1767084780.125
-16.35,1767084780.140625
-19.99,1767084780.15625
-24.49,1767084780.171875
-29.98,1767084780.1875
-36.24,1767084780.203125
-42.57,1767084780.21875
-47.97,1767084780.234375
-51.23,1767084780.25
-51.23,1767084780.265625
-47.34,1767084780.28125
-39.63,1767084780.296875
-28.94,1767084780.3125
-16.72,1767084780.328125
-4.6,1767084780.34375
6.03,1767084780.359375
14.32,1767084780.375
20.07,1767084780.390625
23.55,1767084780.40625
25.2,1767084780.421875
25.49,1767084780.4375
24.73,1767084780.453125
23.2,1767084780.46875
21.23,1767084780.484375
19.25,1767084780.5
17.75,1767084780.515625
17.1,1767084780.53125
17.41,1767084780.546875
18.48,1767084780.5625
19.82,1767084780.578125
20.87,1767084780.59375
21.17,1767084780.609375
20.6,1767084780.625
19.35,1767084780.640625
17.8,1767084780.65625
16.29,1767084780.671875
14.94,1767084780.6875
13.54,1767084780.703125
11.63,1767084780.71875
8.84,1767084780.734375
5.02,1767084780.75
0.41,1767084780.765625
-4.49,1767084780.78125
-9.1,1767084780.796875
-13.02,1767084780.8125
-16.14,1767084780.828125
-18.66,1767084780.84375
-20.98,1767084780.859375
-23.56,1767084780.875
-26.87,1767084780.890625
-31.18,1767084780.90625
-36.53,1767084780.921875
-42.49,1767084780.9375
-48.23,1767084780.953125
-52.52,1767084780.96875
-54.11,1767084780.984375
-52.1,1767084781.0
-46.24,1767084781.015625
-37.05,1767084781.03125
-25.66,1767084781.046875
-13.48,1767084781.0625
-1.82,1767084781.078125
8.33,1767084781.09375
16.38,1767084781.109375
22.05,1767084781.125
25.27,1767084781.140625
26.14,1767084781.15625
24.96,1767084781.171875
22.31,1767084781.1875
19.02,1767084781.203125
15.98,1767084781.21875
13.94,1767084781.234375
13.22,1767084781.25
13.7,1767084781.265625
14.84,1767084781.28125
16.05,1767084781.296875
16.91,1767084781.3125
17.28,1767084781.328125
17.28,1767084781.34375
16.98,1767084781.359375
16.35,1767084781.375
15.15,1767084781.390625
13.11,1767084781.40625
10.15,1767084781.421875
6.46,1767084781.4375
2.46,1767084781.453125
-1.38,1767084781.46875
-4.79,1767084781.484375
-7.82,1767084781.5
-10.75,1767084781.515625
-14.02,1767084781.53125
-17.97,1767084781.546875
-22.78,1767084781.5625
-28.44,1767084781.578125
-34.65,1767084781.59375
-40.88,1767084781.609375
-46.28,1767084781.625
-49.81,1767084781.640625
-50.39,1767084781.65625
-47.27,1767084781.671875
-40.33,1767084781.6875
-30.21,1767084781.703125
-18.23,1767084781.71875
-6.01,1767084781.734375
4.96,1767084781.75
13.72,1767084781.765625
19.88,1767084781.78125
23.56,1767084781.796875
25.12,1767084781.8125
24.94,1767084781.828125
23.42,1767084781.84375
20.93,1767084781.859375
18.01,1767084781.875
15.22,1767084781.890625
13.11,1767084781.90625
11.99,1767084781.921875
11.9,1767084781.9375
12.63,1767084781.953125
13.81,1767084781.96875
15.13,1767084781.984375
16.32,1767084782.0
17.19,1767084782.015625
17.52,1767084782.03125
17.12,1767084782.046875
15.83,1767084782.0625
13.59,1767084782.078125
10.54,1767084782.09375
6.95,1767084782.109375
3.15,1767084782.125
-0.57,1767084782.140625
-4.05,1767084782.15625
-7.32,1767084782.171875
-10.58,1767084782.1875
-14.14,1767084782.203125
-18.29,1767084782.21875
-23.27,1767084782.234375
-29.02,1767084782.25
-35.14,1767084782.265625
-40.78,1767084782.28125
-44.72,1767084782.296875
-45.74,1767084782.3125
-42.89,1767084782.328125
-35.95,1767084782.34375
-25.53,1767084782.359375
-13.04,1767084782.375
-0.22,1767084782.390625
11.32,1767084782.40625
20.5,1767084782.421875
27.01,1767084782.4375
31.07,1767084782.453125
33.21,1767084782.46875
33.87,1767084782.484375
33.37,1767084782.5
31.94,1767084782.515625
29.85,1767084782.53125
27.55,1767084782.546875
25.56,1767084782.5625
24.35,1767084782.578125
24.07,1767084782.59375
24.49,1767084782.609375
25.15,1767084782.625
25.53,1767084782.640625
25.35,1767084782.65625
24.58,1767084782.671875
23.44,1767084782.6875
22.06,1767084782.703125
20.47,1767084782.71875
18.47,1767084782.734375
15.81,1767084782.75
12.42,1767084782.765625
8.45,1767084782.78125
4.25,1767084782.796875
0.23,1767084782.8125
-3.39,1767084782.828125
-6.74,1767084782.84375
-10.21,1767084782.859375
-14.31,1767084782.875
-19.47,1767084782.890625
-25.7,1767084782.90625
-32.6,1767084782.921875
-39.25,1767084782.9375
-44.46,1767084782.953125
-46.94,1767084782.96875
-45.72,1767084782.984375
-40.43,1767084783.0
-31.48,1767084783.015625
-20.0,1767084783.03125
-7.56,1767084783.046875
4.22,1767084783.0625
14.14,1767084783.078125
21.58,1767084783.09375
26.53,1767084783.109375
29.37,1767084783.125
30.61,1767084783.140625
30.65,1767084783.15625
29.77,1767084783.171875
28.23,1767084783.1875
26.36,1767084783.203125
24.64,1767084783.21875
23.51,1767084783.234375
23.22,1767084783.25
23.68,1767084783.265625
24.52,1767084783.28125
25.21,1767084783.296875
25.43,1767084783.3125
25.08,1767084783.328125
24.28,1767084783.34375
23.2,1767084783.359375
21.86,1767084783.375
20.06,1767084783.390625
17.52,1767084783.40625
14.11,1767084783.421875
9.96,1767084783.4375
5.49,1767084783.453125
1.24,1767084783.46875
-2.4,1767084783.484375
-5.34,1767084783.5
-7.8,1767084783.515625
-10.24,1767084783.53125
-13.19,1767084783.546875
-17.06,1767084783.5625
-22.07,1767084783.578125
-28.08,1767084783.59375
-34.57,1767084783.609375
-40.56,1767084783.625
-44.79,1767084783.640625
-45.97,1767084783.65625
-43.17,1767084783.671875
-36.24,1767084783.6875
-25.86,1767084783.703125
-13.49,1767084783.71875
-0.88,1767084783.734375
10.4,1767084783.75
19.32,1767084783.765625
25.53,1767084783.78125
29.17,1767084783.796875
30.68,1767084783.8125
30.48,1767084783.828125
29.01,1767084783.84375
26.75,1767084783.859375
24.22,1767084783.875
22.01,1767084783.890625
20.64,1767084783.90625
20.37,1767084783.921875
21.12,1767084783.9375
22.49,1767084783.953125
23.96,1767084783.96875
25.04,1767084783.984375
25.49,1767084784.0
25.29,1767084784.015625
24.61,1767084784.03125
23.55,1767084784.046875
22.14,1767084784.0625
20.24,1767084784.078125
17.64,1767084784.09375
14.24,1767084784.109375
10.14,1767084784.125
5.66,1767084784.140625
1.24,1767084784.15625
-2.7,1767084784.171875
-6.03,1767084784.1875
-8.88,1767084784.203125
-11.68,1767084784.21875
-14.93,1767084784.234375
-19.05,1767084784.25
-24.19,1767084784.265625
-30.12,1767084784.28125
-36.21,1767084784.296875
-41.45,1767084784.3125
-44.71,1767084784.328125
-44.9,1767084784.34375
-41.36,1767084784.359375
-34.16,1767084784.375
-24.1,1767084784.390625
-12.61,1767084784.40625
-1.28,1767084784.421875
8.54,1767084784.4375
16.08,1767084784.453125
21.17,1767084784.46875
24.06,1767084784.484375
25.09,1767084784.5
24.59,1767084784.515625
22.9,1767084784.53125
20.43,1767084784.546875
17.83,1767084784.5625
15.74,1767084784.578125
14.7,1767084784.59375
14.84,1767084784.609375
15.87,1767084784.625
17.27,1767084784.640625
18.5,1767084784.65625
19.25,1767084784.671875
19.54,1767084784.6875
19.57,1767084784.703125
19.45,1767084784.71875
19.1,1767084784.734375
18.19,1767084784.75
16.34,1767084784.765625
13.32,1767084784.78125
9.21,1767084784.796875
4.42,1767084784.8125
-0.46,1767084784.828125
-4.86,1767084784.84375
-8.45,1767084784.859375
-11.24,1767084784.875
-13.56,1767084784.890625
-15.88,1767084784.90625
-18.74,1767084784.921875
-22.55,1767084784.9375
-27.47,1767084784.953125
-33.23,1767084784.96875
-39.07,1767084784.984375
-43.76,1767084785.0
-45.84,1767084785.015625
-44.13,1767084785.03125
-38.17,1767084785.046875
-28.45,1767084785.0625
-16.42,1767084785.078125
-3.98,1767084785.09375
7.1,1767084785.109375
15.67,1767084785.125
21.31,1767084785.140625
24.22,1767084785.15625
24.93,1767084785.171875
23.98,1767084785.1875
21.87,1767084785.203125
19.08,1767084785.21875
16.12,1767084785.234375
13.49,1767084785.25
11.62,1767084785.265625
10.71,1767084785.28125
10.68,1767084785.296875
11.26,1767084785.3125
12.07,1767084785.328125
12.8,1767084785.34375
13.28,1767084785.359375
13.37,1767084785.375
12.98,1767084785.390625
11.95,1767084785.40625
10.1,1767084785.421875
7.36,1767084785.4375
3.85,1767084785.453125
-0.13,1767084785.46875
-4.16,1767084785.484375
-7.91,1767084785.5
-11.23,1767084785.515625
-14.24,1767084785.53125
-17.17,1767084785.546875
-20.36,1767084785.5625
-24.07,1767084785.578125
-28.45,1767084785.59375
-33.5,1767084785.609375
-38.89,1767084785.625
-44.01,1767084785.640625
-47.84,1767084785.65625
-49.23,1767084785.671875
-47.23,1767084785.6875
-41.46,1767084785.703125
-32.33,1767084785.71875
-21.02,1767084785.734375
-9.1,1767084785.75
1.91,1767084785.765625
10.96,1767084785.78125
17.57,1767084785.796875
21.75,1767084785.8125
23.77,1767084785.828125
23.96,1767084785.84375
22.69,1767084785.859375
20.37,1767084785.875
17.56,1767084785.890625
14.87,1767084785.90625
12.89,1767084785.921875
11.99,1767084785.9375
12.21,1767084785.953125
13.28,1767084785.96875
14.7,1767084785.984375
15.99,1767084786.0
16.74,1767084786.015625
16.73,1767084786.03125
15.88,1767084786.046875
14.2,1767084786.0625
11.74,1767084786.078125
8.58,1767084786.09375
4.87,1767084786.109375
0.81,1767084786.125
-3.33,1767084786.140625
-7.25,1767084786.15625
-10.7,1767084786.171875
-13.56,1767084786.1875
-15.92,1767084786.203125
-18.05,1767084786.21875
-20.44,1767084786.234375
-23.59,1767084786.25
-27.86,1767084786.265625
-33.21,1767084786.28125
-39.08,1767084786.296875
-44.37,1767084786.3125
-47.71,1767084786.328125
-47.83,1767084786.34375
