PPG GREEN,time
2217901.0,1767084708.834
2219241.0,1767084708.874
2220939.0,1767084708.913
2222588.0,1767084708.952
2223782.0,1767084708.993
2224994.0,1767084709.034
2226576.0,1767084709.073
2227734.0,1767084709.113
2229533.0,1767084709.154
2230304.0,1767084709.193
2229662.0,1767084709.233
2229286.0,1767084709.274
2229693.0,1767084709.313
2230008.0,1767084709.353
2230739.0,1767084709.395
2231217.0,1767084709.433
2231970.0,1767084709.473
2232920.0,1767084709.514
2233413.0,1767084709.553
2234812.0,1767084709.594
2235285.0,1767084709.635
2236425.0,1767084709.674
2237701.0,1767084709.714
2239033.0,1767084709.755
2239771.0,1767084709.794
2241267.0,1767084709.834
2242874.0,1767084709.875
2243663.0,1767084709.914
2245226.0,1767084709.954
2245179.0,1767084709.997
2244293.0,1767084710.033
2244367.0,1767084710.073
2244121.0,1767084710.114
2244336.0,1767084710.153
2244966.0,1767084710.194
2245566.0,1767084710.235
2246642.0,1767084710.274
2246564.0,1767084710.314
2247159.0,1767084710.356
2248215.0,1767084710.385
2248215.0,1767084710.424
2249300.0,1767084710.465
2249747.0,1767084710.504
2251098.0,1767084710.544
2252153.0,1767084710.586
2253082.0,1767084710.625
2253949.0,1767084710.665
2255410.0,1767084710.706
2255498.0,1767084710.745
2254309.0,1767084710.786
2253595.0,1767084710.826
2253619.0,1767084710.865
2253325.0,1767084710.905
2254479.0,1767084710.947
2254177.0,1767084710.986
2254543.0,1767084711.026
2255002.0,1767084711.067
2254760.0,1767084711.102
2255398.0,1767084711.134
2256163.0,1767084711.176
2256873.0,1767084711.212
2257738.0,1767084711.253
2257930.0,1767084711.294
2259485.0,1767084711.374
2259778.0,1767084711.415
2259273.0,1767084711.453
2258663.0,1767084711.333
2257254.0,1767084711.494
2255805.0,1767084711.535
2254523.0,1767084711.574
2254365.0,1767084711.614
2253794.0,1767084711.655
2253408.0,1767084711.694
2253597.0,1767084711.734
2253189.0,1767084711.776
2252575.0,1767084711.854
2252337.0,1767084711.814
2252826.0,1767084711.895
2252674.0,1767084711.935
2252983.0,1767084711.975
2253065.0,1767084712.016
2252924.0,1767084712.055
2253598.0,1767084712.095
2253653.0,1767084712.136
2250046.0,1767084712.215
2246100.0,1767084712.256
2253185.0,1767084712.176
2243379.0,1767084712.295
2241092.0,1767084712.335
2238891.0,1767084712.377
2237175.0,1767084712.415
2235469.0,1767084712.455
2233578.0,1767084712.497
2232029.0,1767084712.536
2230315.0,1767084712.576
2229569.0,1767084712.617
2228710.0,1767084712.656
2227918.0,1767084712.696
2227348.0,1767084712.777
2227391.0,1767084712.737
2226708.0,1767084712.816
2227414.0,1767084712.857
2226913.0,1767084712.896
2224995.0,1767084712.936
2221365.0,1767084712.978
2217631.0,1767084713.017
2214809.0,1767084713.057
2213109.0,1767084713.098
2212206.0,1767084713.137
2210637.0,1767084713.178
2209561.0,1767084713.218
2208364.0,1767084713.257
2206708.0,1767084713.296
2205780.0,1767084713.336
2205711.0,1767084713.374
2205111.0,1767084713.414
2204844.0,1767084713.455
2204957.0,1767084713.494
2204438.0,1767084713.534
2204614.0,1767084713.576
2204942.0,1767084713.615
2203587.0,1767084713.655
2196996.0,1767084713.736
2193198.0,1767084713.774
2200529.0,1767084713.696
2191252.0,1767084713.807
2189224.0,1767084713.846
2187827.0,1767084713.886
2186417.0,1767084713.927
2184552.0,1767084713.967
2182180.0,1767084714.006
2180505.0,1767084714.047
2179296.0,1767084714.086
2178242.0,1767084714.126
2177553.0,1767084714.168
2176495.0,1767084714.206
2176137.0,1767084714.246
2175241.0,1767084714.288
2175410.0,1767084714.327
2173164.0,1767084714.367
2169081.0,1767084714.408
2164912.0,1767084714.447
2161824.0,1767084714.487
2159670.0,1767084714.528
2158238.0,1767084714.568
2156945.0,1767084714.607
2155793.0,1767084714.648
2153736.0,1767084714.687
2152452.0,1767084714.727
2151529.0,1767084714.769
2151011.0,1767084714.807
2150907.0,1767084714.848
2150828.0,1767084714.889
2150395.0,1767084714.928
2150690.0,1767084714.968
2151194.0,1767084715.009
2150410.0,1767084715.048
2146426.0,1767084715.088
2142281.0,1767084715.129
2138327.0,1767084715.169
2135885.0,1767084715.208
2134393.0,1767084715.249
2133282.0,1767084715.288
2131545.0,1767084715.328
2129855.0,1767084715.37
2127897.0,1767084715.409
2126854.0,1767084715.449
2125708.0,1767084715.49
2124999.0,1767084715.529
2124773.0,1767084715.57
2124344.0,1767084715.61
2124553.0,1767084715.649
2124580.0,1767084715.689
2124117.0,1767084715.73
2120855.0,1767084715.77
2115916.0,1767084715.809
2111675.0,1767084715.85
2108857.0,1767084715.889
2106587.0,1767084715.929
2104818.0,1767084715.971
2103339.0,1767084716.01
2102139.0,1767084716.05
2100396.0,1767084716.091
2099094.0,1767084716.13
2098518.0,1767084716.171
2097878.0,1767084716.211
2097387.0,1767084716.25
2096952.0,1767084716.29
2097136.0,1767084716.331
2097222.0,1767084716.371
2097129.0,1767084716.41
2096774.0,1767084716.451
2093409.0,1767084716.49
2088430.0,1767084716.531
2084690.0,1767084716.572
2081948.0,1767084716.611
2080115.0,1767084716.651
2078400.0,1767084716.692
2077126.0,1767084716.731
2075120.0,1767084716.772
2073622.0,1767084716.812
2072054.0,1767084716.851
2071216.0,1767084716.891
2070181.0,1767084716.932
2070315.0,1767084716.972
2070078.0,1767084717.011
2069598.0,1767084717.052
2070083.0,1767084717.091
2070011.0,1767084717.132
2070210.0,1767084717.173
2070284.0,1767084717.212
2068360.0,1767084717.252
2064314.0,1767084717.293
2059927.0,1767084717.332
2057396.0,1767084717.373
2055183.0,1767084717.413
2054289.0,1767084717.452
2052811.0,1767084717.492
2051180.0,1767084717.533
2049942.0,1767084717.573
2049000.0,1767084717.612
2047676.0,1767084717.654
2047712.0,1767084717.693
2047375.0,1767084717.733
2047487.0,1767084717.774
2047623.0,1767084717.813
2047830.0,1767084717.853
2048297.0,1767084717.894
2048670.0,1767084717.933
2049541.0,1767084717.974
2049640.0,1767084718.014
2048021.0,1767084718.053
2044229.0,1767084718.093
2041100.0,1767084718.134
2039402.0,1767084718.174
2038248.0,1767084718.214
2037631.0,1767084718.255
2036582.0,1767084718.294
2035925.0,1767084718.334
2034688.0,1767084718.376
2034212.0,1767084718.414
2033857.0,1767084718.454
2034196.0,1767084718.495
2034729.0,1767084718.534
2034715.0,1767084718.575
2035245.0,1767084718.615
2036017.0,1767084718.654
2036320.0,1767084718.694
2037745.0,1767084718.731
2038402.0,1767084718.771
2038838.0,1767084718.81
2037147.0,1767084718.851
2034160.0,1767084718.89
2031701.0,1767084718.93
2030158.0,1767084718.972
2029226.0,1767084719.01
2029347.0,1767084719.051
2028947.0,1767084719.092
2028404.0,1767084719.131
2027433.0,1767084719.171
2027414.0,1767084719.212
2027681.0,1767084719.251
2027708.0,1767084719.291
2028935.0,1767084719.332
2029281.0,1767084719.372
2030261.0,1767084719.411
2031329.0,1767084719.452
2032246.0,1767084719.49
2033077.0,1767084719.528
2034144.0,1767084719.57
2035175.0,1767084719.608
2033730.0,1767084719.648
2031443.0,1767084719.69
2029072.0,1767084719.729
2028165.0,1767084719.767
2027923.0,1767084719.808
2028102.0,1767084719.847
2028211.0,1767084719.888
2027851.0,1767084719.929
2027886.0,1767084719.969
2027656.0,1767084719.999
2028060.0,1767084720.04
2028847.0,1767084720.079
2029814.0,1767084720.119
2030461.0,1767084720.161
2031489.0,1767084720.199
2032284.0,1767084720.239
2033331.0,1767084720.28
2034794.0,1767084720.319
2034061.0,1767084720.36
2032028.0,1767084720.4
2029658.0,1767084720.439
2028106.0,1767084720.479
2027389.0,1767084720.521
2027551.0,1767084720.56
2027816.0,1767084720.6
2028150.0,1767084720.641
2027306.0,1767084720.68
2027168.0,1767084720.721
2027399.0,1767084720.763
2027982.0,1767084720.797
2029033.0,1767084720.831
2029466.0,1767084720.869
2030407.0,1767084720.909
2031226.0,1767084720.95
2032398.0,1767084720.991
2033495.0,1767084721.03
2032119.0,1767084721.07
2028989.0,1767084721.111
2026313.0,1767084721.151
2024501.0,1767084721.191
2023734.0,1767084721.228
2023734.0,1767084721.267
2023017.0,1767084721.307
2022420.0,1767084721.349
2022124.0,1767084721.387
2021223.0,1767084721.427
2020734.0,1767084721.468
2020739.0,1767084721.508
2020555.0,1767084721.548
2021018.0,1767084721.589
2021378.0,1767084721.628
2022181.0,1767084721.668
2022499.0,1767084721.709
2023348.0,1767084721.749
2023513.0,1767084721.788
2021423.0,1767084721.829
2018037.0,1767084721.868
2015168.0,1767084721.908
2013203.0,1767084721.951
2012137.0,1767084721.989
2011311.0,1767084722.03
2010744.0,1767084722.071
2009582.0,1767084722.11
2008542.0,1767084722.151
2007795.0,1767084722.192
2007717.0,1767084722.231
2007920.0,1767084722.271
2008370.0,1767084722.312
2008420.0,1767084722.349
2008951.0,1767084722.389
2009317.0,1767084722.431
2010356.0,1767084722.462
2010788.0,1767084722.502
2010063.0,1767084722.544
2007244.0,1767084722.582
2004022.0,1767084722.622
2001747.0,1767084722.663
2000591.0,1767084722.703
1999521.0,1767084722.743
1998464.0,1767084722.784
1997976.0,1767084722.823
1997218.0,1767084722.863
1996462.0,1767084722.904
1995876.0,1767084722.944
1995819.0,1767084722.983
1996178.0,1767084723.024
1996694.0,1767084723.063
1997060.0,1767084723.103
1997673.0,1767084723.145
1998098.0,1767084723.184
1999315.0,1767084723.222
2000140.0,1767084723.263
2000946.0,1767084723.296
2001633.0,1767084723.333
1999166.0,1767084723.371
1996137.0,1767084723.41
1994345.0,1767084723.45
1993198.0,1767084723.491
1991984.0,1767084723.531
1991916.0,1767084723.571
1991828.0,1767084723.612
1991264.0,1767084723.652
1990140.0,1767084723.685
1990223.0,1767084723.727
1990664.0,1767084723.765
1991103.0,1767084723.805
1992051.0,1767084723.847
1992105.0,1767084723.886
1993105.0,1767084723.926
1994251.0,1767084723.967
1994764.0,1767084724.006
1995995.0,1767084724.046
1997039.0,1767084724.087
1998093.0,1767084724.127
1997848.0,1767084724.166
1996095.0,1767084724.208
1993857.0,1767084724.247
1992414.0,1767084724.287
1991536.0,1767084724.328
1991711.0,1767084724.367
1991517.0,1767084724.405
1991699.0,1767084724.443
1991336.0,1767084724.476
1990966.0,1767084724.514
1991411.0,1767084724.552
1991993.0,1767084724.592
1992662.0,1767084724.632
1993799.0,1767084724.673
1995107.0,1767084724.713
1996387.0,1767084724.753
1997260.0,1767084724.794
1998394.0,1767084724.833
1999985.0,1767084724.871
2001483.0,1767084724.912
2002574.0,1767084724.951
2001074.0,1767084724.991
1999627.0,1767084725.032
1998717.0,1767084725.071
1998686.0,1767084725.112
1998852.0,1767084725.152
1999286.0,1767084725.191
2000198.0,1767084725.231
2000458.0,1767084725.273
2000764.0,1767084725.312
2001352.0,1767084725.352
2002627.0,1767084725.393
2003431.0,1767084725.432
2005012.0,1767084725.472
2006391.0,1767084725.514
2007991.0,1767084725.552
2009034.0,1767084725.592
2010754.0,1767084725.634
2012397.0,1767084725.673
2013221.0,1767084725.714
2012262.0,1767084725.753
2011175.0,1767084725.87
2012236.0,1767084725.909
2010894.0,1767084725.831
2011324.0,1767084725.792
2012980.0,1767084725.948
2013331.0,1767084725.987
2013947.0,1767084726.026
2014223.0,1767084726.065
2015118.0,1767084726.104
2016437.0,1767084726.143
2017634.0,1767084726.182
2019467.0,1767084726.221
2021436.0,1767084726.26
2023048.0,1767084726.299
2024510.0,1767084726.338
2024951.0,1767084726.416
2025956.0,1767084726.377
2023145.0,1767084726.455
2022311.0,1767084726.494
2022064.0,1767084726.533
2022249.0,1767084726.572
2022739.0,1767084726.611
2023404.0,1767084726.65
2023297.0,1767084726.689
2025059.0,1767084726.806
2024316.0,1767084726.767
2025874.0,1767084726.845
2027040.0,1767084726.884
2023655.0,1767084726.728
2028177.0,1767084726.923
2029447.0,1767084726.962
2030431.0,1767084727.001
2031791.0,1767084727.04
2030731.0,1767084727.079
2028959.0,1767084727.118
2026680.0,1767084727.157
2025716.0,1767084727.196
2025627.0,1767084727.235
2025004.0,1767084727.274
2025416.0,1767084727.313
2025474.0,1767084727.352
2024735.0,1767084727.43
2025215.0,1767084727.469
2025238.0,1767084727.391
2025886.0,1767084727.508
2026730.0,1767084727.547
2027940.0,1767084727.586
2028516.0,1767084727.625
2024317.0,1767084727.937
2029246.0,1767084727.664
2023869.0,1767084727.976
2025649.0,1767084727.898
2023140.0,1767084728.054
2027179.0,1767084727.859
2022308.0,1767084728.132
2029634.0,1767084727.82
2031483.0,1767084727.742
2023283.0,1767084728.015
2031671.0,1767084727.781
2030703.0,1767084727.703
2022552.0,1767084728.21
2022475.0,1767084728.171
2022700.0,1767084728.093
2023571.0,1767084728.249
2023612.0,1767084728.288
2024505.0,1767084728.327
2025378.0,1767084728.366
2026370.0,1767084728.405
2027568.0,1767084728.444
2028257.0,1767084728.483
2029287.0,1767084728.522
2029287.0,1767084728.561
2030454.0,1767084728.6
2030164.0,1767084728.639
2027899.0,1767084728.678
2025662.0,1767084728.717
2023735.0,1767084728.795
2024364.0,1767084728.756
2023210.0,1767084728.873
2023010.0,1767084728.834
2022956.0,1767084728.912
2022649.0,1767084728.951
2022785.0,1767084728.99
2022901.0,1767084729.03
2023276.0,1767084729.07
2024163.0,1767084729.11
2025023.0,1767084729.15
2025612.0,1767084729.19
2026622.0,1767084729.23
2027555.0,1767084729.27
2028451.0,1767084729.31
2029910.0,1767084729.35
2031081.0,1767084729.39
2032533.0,1767084729.43
2033410.0,1767084729.47
2031823.0,1767084729.51
2030074.0,1767084729.55
2029207.0,1767084729.59
2028529.0,1767084729.63
2028206.0,1767084729.67
2028641.0,1767084729.71
2028719.0,1767084729.75
2028947.0,1767084729.79
2028891.0,1767084729.83
2029034.0,1767084729.87
2029834.0,1767084729.91
2030935.0,1767084729.95
2031700.0,1767084729.99
2032634.0,1767084730.03
2033909.0,1767084730.07
2035036.0,1767084730.11
2036344.0,1767084730.15
2037583.0,1767084730.19
2039151.0,1767084730.23
2040286.0,1767084730.27
2041769.0,1767084730.31
2040487.0,1767084730.35
2039268.0,1767084730.39
2038756.0,1767084730.43
2038018.0,1767084730.47
2038313.0,1767084730.51
2038847.0,1767084730.55
2039648.0,1767084730.59
2039819.0,1767084730.63
2040126.0,1767084730.67
2041041.0,1767084730.71
2041643.0,1767084730.75
2042785.0,1767084730.79
2043495.0,1767084730.83
2044950.0,1767084730.87
2045818.0,1767084730.91
2047522.0,1767084730.95
2048342.0,1767084730.99
2049757.0,1767084731.03
2051273.0,1767084731.07
2052791.0,1767084731.11
2053856.0,1767084731.15
2053482.0,1767084731.19
2052328.0,1767084731.23
2051371.0,1767084731.27
2051775.0,1767084731.31
2051874.0,1767084731.35
2052820.0,1767084731.39
2052963.0,1767084731.43
2053704.0,1767084731.47
2053952.0,1767084731.51
2054426.0,1767084731.55
2056406.0,1767084731.63
2055292.0,1767084731.59
2057518.0,1767084731.67
2058649.0,1767084731.71
2059504.0,1767084731.75
2061311.0,1767084731.79
2062381.0,1767084731.83
2063608.0,1767084731.87
2065014.0,1767084731.91
2066535.0,1767084731.95
2066040.0,1767084731.99
2064690.0,1767084732.03
2064301.0,1767084732.07
2064777.0,1767084732.11
2065094.0,1767084732.15
2065720.0,1767084732.19
2066649.0,1767084732.23
2066924.0,1767084732.27
2067539.0,1767084732.31
2068078.0,1767084732.35
2069038.0,1767084732.39
2070062.0,1767084732.43
2071298.0,1767084732.47
2072740.0,1767084732.51
2074025.0,1767084732.55
2075184.0,1767084732.59
2076860.0,1767084732.63
2077600.0,1767084732.67
2078366.0,1767084732.71
2077111.0,1767084732.75
2076543.0,1767084732.79
2076804.0,1767084732.83
2077143.0,1767084732.87
2078035.0,1767084732.91
2078949.0,1767084732.95
2079670.0,1767084732.99
2080264.0,1767084733.03
2080978.0,1767084733.07
2081903.0,1767084733.11
2082750.0,1767084733.15
2084251.0,1767084733.19
2085560.0,1767084733.23
2087298.0,1767084733.27
2088471.0,1767084733.31
2090088.0,1767084733.35
2089316.0,1767084733.39
2088862.0,1767084733.43
2088164.0,1767084733.47
2088481.0,1767084733.51
2088980.0,1767084733.55
2090266.0,1767084733.59
2091284.0,1767084733.63
2092108.0,1767084733.67
2092345.0,1767084733.71
2093115.0,1767084733.75
2093510.0,1767084733.79
2094935.0,1767084733.83
2096053.0,1767084733.87
2097138.0,1767084733.91
2098613.0,1767084733.95
2098738.0,1767084733.99
2097476.0,1767084734.03
2096710.0,1767084734.07
2096306.0,1767084734.11
2096567.0,1767084734.15
2097348.0,1767084734.19
2097574.0,1767084734.23
2098303.0,1767084734.27
2097756.0,1767084734.31
2098264.0,1767084734.35
2098285.0,1767084734.39
2099134.0,1767084734.43
2100160.0,1767084734.47
2101142.0,1767084734.51
2101142.0,1767084734.55
2101474.0,1767084734.59
2101013.0,1767084734.63
2099415.0,1767084734.67
2097901.0,1767084734.71
2096311.0,1767084734.75
2095669.0,1767084734.79
2096068.0,1767084734.83
2096013.0,1767084734.87
2095765.0,1767084734.91
2095594.0,1767084734.95
2095130.0,1767084734.99
2095747.0,1767084735.03
2095607.0,1767084735.07
2095488.0,1767084735.11
2094859.0,1767084735.15
2094885.0,1767084735.19
2093147.0,1767084735.23
2091308.0,1767084735.27
2089629.0,1767084735.31
2088497.0,1767084735.35
2088650.0,1767084735.39
2089200.0,1767084735.43
2089634.0,1767084735.47
2090703.0,1767084735.51
2091001.0,1767084735.55
2091788.0,1767084735.59
2092881.0,1767084735.63
2093178.0,1767084735.67
2093736.0,1767084735.71
2094385.0,1767084735.75
2095305.0,1767084735.79
2095824.0,1767084735.83
2095616.0,1767084735.87
2092639.0,1767084735.91
2090208.0,1767084735.95
2088559.0,1767084735.99
2086735.0,1767084736.03
2086126.0,1767084736.07
2085095.0,1767084736.11
2084373.0,1767084736.15
2084265.0,1767084736.19
2083089.0,1767084736.23
2082864.0,1767084736.27
2083302.0,1767084736.31
2083824.0,1767084736.35
2084040.0,1767084736.39
2084686.0,1767084736.43
2085601.0,1767084736.47
2086299.0,1767084736.51
2087080.0,1767084736.55
2088077.0,1767084736.59
2088291.0,1767084736.63
2087868.0,1767084736.67
2085983.0,1767084736.71
2084894.0,1767084736.75
2084030.0,1767084736.79
2084062.0,1767084736.83
2084083.0,1767084736.87
2084576.0,1767084736.91
2084977.0,1767084736.95
2085672.0,1767084736.99
2085971.0,1767084737.03
2086715.0,1767084737.07
2088075.0,1767084737.11
2089259.0,1767084737.15
2090339.0,1767084737.19
2091516.0,1767084737.23
2092741.0,1767084737.27
2094555.0,1767084737.31
2096116.0,1767084737.35
2097459.0,1767084737.39
2099298.0,1767084737.43
2100054.0,1767084737.47
2100574.0,1767084737.51
2100787.0,1767084737.55
2101439.0,1767084737.59
2102089.0,1767084737.63
2102870.0,1767084737.67
2104074.0,1767084737.709
2106428.0,1767084737.79
2107484.0,1767084737.83
2105318.0,1767084737.749
2108762.0,1767084737.869
2110623.0,1767084737.91
2112136.0,1767084737.95
2113445.0,1767084737.99
2114703.0,1767084738.031
2116341.0,1767084738.07
2118122.0,1767084738.111
2119912.0,1767084738.152
2121301.0,1767084738.192
2123110.0,1767084738.233
2125180.0,1767084738.274
2126682.0,1767084738.313
2126966.0,1767084738.353
2127506.0,1767084738.394
2128907.0,1767084738.434
2129920.0,1767084738.473
2131192.0,1767084738.51
2132750.0,1767084738.549
2133916.0,1767084738.589
2134924.0,1767084738.631
2136343.0,1767084738.669
2137787.0,1767084738.709
2139159.0,1767084738.75
2140738.0,1767084738.789
2142353.0,1767084738.83
2144179.0,1767084738.87
2145290.0,1767084738.91
2147171.0,1767084738.95
2148633.0,1767084738.991
2149992.0,1767084739.031
2151896.0,1767084739.07
2153223.0,1767084739.111
2154917.0,1767084739.15
2156261.0,1767084739.19
2156626.0,1767084739.233
2157583.0,1767084739.272
2157930.0,1767084739.312
2159310.0,1767084739.354
2160536.0,1767084739.393
2161767.0,1767084739.434
2162997.0,1767084739.474
2164223.0,1767084739.513
2165492.0,1767084739.554
2166603.0,1767084739.595
2167821.0,1767084739.635
2169193.0,1767084739.675
2170637.0,1767084739.715
2172167.0,1767084739.752
2173452.0,1767084739.792
2174404.0,1767084739.834
2175944.0,1767084739.872
2177158.0,1767084739.912
2178973.0,1767084739.953
2179903.0,1767084739.992
2181322.0,1767084740.033
2182462.0,1767084740.073
2183430.0,1767084740.112
2183586.0,1767084740.152
2184460.0,1767084740.194
2184969.0,1767084740.233
2186070.0,1767084740.273
2189562.0,1767084740.436
2187282.0,1767084740.314
2187707.0,1767084740.353
2188994.0,1767084740.393
2190591.0,1767084740.474
2191702.0,1767084740.514
2192467.0,1767084740.555
2193756.0,1767084740.594
2194449.0,1767084740.635
2195655.0,1767084740.676
2196549.0,1767084740.715
2197264.0,1767084740.755
2198296.0,1767084740.796
2199335.0,1767084740.836
2200377.0,1767084740.874
2201662.0,1767084740.915
2202316.0,1767084740.945
2202385.0,1767084740.986
2202646.0,1767084741.027
2202533.0,1767084741.066
2203392.0,1767084741.106
2203854.0,1767084741.147
2204549.0,1767084741.186
2205044.0,1767084741.227
2205523.0,1767084741.267
2206470.0,1767084741.306
2206716.0,1767084741.346
2207870.0,1767084741.387
2208639.0,1767084741.427
2209059.0,1767084741.467
2209478.0,1767084741.508
2210229.0,1767084741.547
2211048.0,1767084741.587
2211626.0,1767084741.629
2212416.0,1767084741.667
2213505.0,1767084741.707
2213921.0,1767084741.748
2214685.0,1767084741.787
2213832.0,1767084741.828
2213372.0,1767084741.869
2213190.0,1767084741.908
2213151.0,1767084741.948
2212668.0,1767084741.989
2212717.0,1767084742.028
2212960.0,1767084742.068
2212341.0,1767084742.109
2212442.0,1767084742.148
2212605.0,1767084742.189
2212435.0,1767084742.231
2212946.0,1767084742.269
2213065.0,1767084742.309
2212820.0,1767084742.35
2212968.0,1767084742.389
2212974.0,1767084742.43
2213596.0,1767084742.471
2213775.0,1767084742.51
2214149.0,1767084742.55
2213757.0,1767084742.591
2212676.0,1767084742.631
2210324.0,1767084742.67
2208896.0,1767084742.711
2208138.0,1767084742.75
2207046.0,1767084742.79
2206093.0,1767084742.832
2205534.0,1767084742.867
2204013.0,1767084742.902
2202943.0,1767084742.938
2202136.0,1767084742.974
2201732.0,1767084743.015
2201410.0,1767084743.056
2201038.0,1767084743.095
2200444.0,1767084743.135
2200019.0,1767084743.176
2199743.0,1767084743.216
2199497.0,1767084743.256
2199152.0,1767084743.297
2199013.0,1767084743.334
2196545.0,1767084743.374
2192896.0,1767084743.408
2190941.0,1767084743.447
2188798.0,1767084743.487
2187495.0,1767084743.528
2186464.0,1767084743.567
2185138.0,1767084743.608
2183513.0,1767084743.648
2182014.0,1767084743.687
2180422.0,1767084743.727
2179473.0,1767084743.768
2178241.0,1767084743.808
2177829.0,1767084743.847
2177351.0,1767084743.889
2176273.0,1767084743.928
2176180.0,1767084743.968
2175491.0,1767084744.01
2174908.0,1767084744.048
2171898.0,1767084744.088
2167906.0,1767084744.121
2164898.0,1767084744.157
2162768.0,1767084744.196
2160917.0,1767084744.237
2159727.0,1767084744.276
2157644.0,1767084744.316
2155799.0,1767084744.358
2153833.0,1767084744.398
2152587.0,1767084744.437
2151031.0,1767084744.478
2149983.0,1767084744.518
2149166.0,1767084744.556
2147978.0,1767084744.598
2147733.0,1767084744.632
2147733.0,1767084744.672
2146803.0,1767084744.713
2146458.0,1767084744.752
2143853.0,1767084744.793
2139838.0,1767084744.833
2135847.0,1767084744.872
2132962.0,1767084744.912
2130073.0,1767084744.953
2128198.0,1767084744.993
2126642.0,1767084745.033
2124831.0,1767084745.074
2122468.0,1767084745.113
2120656.0,1767084745.153
2120751.0,1767084745.195
2121733.0,1767084745.233
2123183.0,1767084745.273
2123723.0,1767084745.314
2124073.0,1767084745.353
2124246.0,1767084745.394
2123991.0,1767084745.435
2122541.0,1767084745.475
2118532.0,1767084745.515
2113469.0,1767084745.557
2110079.0,1767084745.597
2106474.0,1767084745.636
2103843.0,1767084745.678
2101706.0,1767084745.717
2099308.0,1767084745.757
2096506.0,1767084745.799
2094033.0,1767084745.837
2091935.0,1767084745.875
2090775.0,1767084745.916
2089441.0,1767084745.955
2088173.0,1767084745.996
2087144.0,1767084746.036
2086475.0,1767084746.075
2085720.0,1767084746.115
2084657.0,1767084746.156
2081556.0,1767084746.196
2076668.0,1767084746.235
2072483.0,1767084746.276
2069900.0,1767084746.315
2068047.0,1767084746.355
2066299.0,1767084746.397
2064961.0,1767084746.436
2062838.0,1767084746.476
2061064.0,1767084746.517
2059898.0,1767084746.556
2058912.0,1767084746.597
2058659.0,1767084746.638
2057859.0,1767084746.677
2057766.0,1767084746.717
2057964.0,1767084746.759
2058072.0,1767084746.799
2056665.0,1767084746.838
2053817.0,1767084746.88
2048808.0,1767084746.919
2045744.0,1767084746.957
2043163.0,1767084746.999
2041531.0,1767084747.038
2040136.0,1767084747.077
2038739.0,1767084747.118
2037124.0,1767084747.157
2035423.0,1767084747.198
2034586.0,1767084747.238
2033369.0,1767084747.277
2033320.0,1767084747.317
2032726.0,1767084747.358
2033104.0,1767084747.398
2032828.0,1767084747.438
2032750.0,1767084747.479
2031619.0,1767084747.518
2027537.0,1767084747.558
2023161.0,1767084747.6
2019978.0,1767084747.638
2017646.0,1767084747.678
2016089.0,1767084747.719
2014768.0,1767084747.758
2013363.0,1767084747.8
2011490.0,1767084747.841
2010152.0,1767084747.877
2008960.0,1767084747.917
2008388.0,1767084747.959
2008209.0,1767084747.999
2008493.0,1767084748.038
2008312.0,1767084748.079
2008793.0,1767084748.119
2008893.0,1767084748.159
2008269.0,1767084748.201
2004466.0,1767084748.239
1999763.0,1767084748.279
1996361.0,1767084748.317
1993644.0,1767084748.356
1991678.0,1767084748.397
1990446.0,1767084748.437
1988706.0,1767084748.476
1987477.0,1767084748.516
1986060.0,1767084748.557
1985260.0,1767084748.597
1984502.0,1767084748.636
1984693.0,1767084748.677
1984662.0,1767084748.716
1984879.0,1767084748.756
1984851.0,1767084748.798
1985446.0,1767084748.837
1986066.0,1767084748.877
1986854.0,1767084748.918
1985183.0,1767084748.957
1980984.0,1767084748.997
1976525.0,1767084749.039
1973421.0,1767084749.078
1971102.0,1767084749.118
1969027.0,1767084749.16
1968208.0,1767084749.199
1967204.0,1767084749.239
1965921.0,1767084749.28
1964740.0,1767084749.319
1964266.0,1767084749.36
1964577.0,1767084749.402
1964160.0,1767084749.44
1964608.0,1767084749.478
1965348.0,1767084749.52
1966062.0,1767084749.549
1966897.0,1767084749.589
1967691.0,1767084749.625
1968815.0,1767084749.664
1969772.0,1767084749.704
1971400.0,1767084749.745
1967944.0,1767084749.824
1970966.0,1767084749.785
1963667.0,1767084749.866
1960573.0,1767084749.905
1958187.0,1767084749.945
1956160.0,1767084749.987
1955518.0,1767084750.025
1954295.0,1767084750.065
1953626.0,1767084750.106
1952342.0,1767084750.145
1951632.0,1767084750.186
1952278.0,1767084750.226
1952499.0,1767084750.261
1953081.0,1767084750.295
1953548.0,1767084750.334
1954251.0,1767084750.374
1955269.0,1767084750.413
1956380.0,1767084750.454
1957412.0,1767084750.493
1958428.0,1767084750.533
1960224.0,1767084750.575
1961286.0,1767084750.614
1959873.0,1767084750.654
1956318.0,1767084750.695
1952812.0,1767084750.734
1950856.0,1767084750.773
1949700.0,1767084750.814
1948492.0,1767084750.853
1947994.0,1767084750.893
1947525.0,1767084750.934
1946602.0,1767084750.974
1946485.0,1767084751.013
1946448.0,1767084751.054
1947073.0,1767084751.093
1947715.0,1767084751.133
1948685.0,1767084751.175
1949983.0,1767084751.214
1954231.0,1767084751.495
1950657.0,1767084751.536
1948586.0,1767084751.576
1947074.0,1767084751.615
1956363.0,1767084751.415
1954760.0,1767084751.375
1952893.0,1767084751.334
1957045.0,1767084751.454
1951524.0,1767084751.295
1946375.0,1767084751.655
1945888.0,1767084751.694
1945512.0,1767084751.734
1944824.0,1767084751.776
1944639.0,1767084751.814
1944411.0,1767084751.855
1945746.0,1767084751.935
1946097.0,1767084751.976
1947352.0,1767084752.013
1950875.0,1767084751.254
1948214.0,1767084752.052
1949679.0,1767084752.092
1944875.0,1767084751.896
1950968.0,1767084752.133
1952090.0,1767084752.173
1953518.0,1767084752.212
1955374.0,1767084752.253
1955452.0,1767084752.293
1952005.0,1767084752.333
1948888.0,1767084752.374
1945154.0,1767084752.453
1944492.0,1767084752.533
1944001.0,1767084752.573
1946692.0,1767084752.413
1944429.0,1767084752.494
1943228.0,1767084752.614
1942736.0,1767084752.693
1942715.0,1767084752.653
1943437.0,1767084752.734
1944301.0,1767084752.774
1945365.0,1767084752.813
1946133.0,1767084752.854
1947127.0,1767084752.893
1948326.0,1767084752.933
1950016.0,1767084752.975
1951167.0,1767084753.013
1952823.0,1767084753.053
1953099.0,1767084753.095
1950745.0,1767084753.134
1947168.0,1767084753.174
1945044.0,1767084753.215
1943298.0,1767084753.254
1942564.0,1767084753.294
1942190.0,1767084753.335
1942117.0,1767084753.375
1941499.0,1767084753.414
1941077.0,1767084753.455
1941659.0,1767084753.494
1941808.0,1767084753.534
1942880.0,1767084753.576
1943500.0,1767084753.614
1944917.0,1767084753.655
1945857.0,1767084753.696
1947092.0,1767084753.735
1948622.0,1767084753.775
1949882.0,1767084753.816
1951799.0,1767084753.855
1951865.0,1767084753.895
1949178.0,1767084753.936
1946073.0,1767084753.976
1944654.0,1767084754.015
1943987.0,1767084754.056
1943462.0,1767084754.095
1943665.0,1767084754.135
1943607.0,1767084754.177
1943324.0,1767084754.216
1943146.0,1767084754.256
1943866.0,1767084754.297
1944675.0,1767084754.336
1945879.0,1767084754.377
1946965.0,1767084754.417
1948482.0,1767084754.456
1949654.0,1767084754.496
1950675.0,1767084754.537
1952431.0,1767084754.577
1953904.0,1767084754.616
1954740.0,1767084754.657
1951972.0,1767084754.696
1949597.0,1767084754.737
1948562.0,1767084754.778
1947698.0,1767084754.817
1947868.0,1767084754.857
1948487.0,1767084754.898
1948568.0,1767084754.937
1948074.0,1767084754.978
1948393.0,1767084755.018
1949442.0,1767084755.057
1950338.0,1767084755.097
1951255.0,1767084755.138
1952501.0,1767084755.178
1954070.0,1767084755.218
1955296.0,1767084755.259
1957013.0,1767084755.298
1958582.0,1767084755.338
1959585.0,1767084755.38
1957846.0,1767084755.418
1955502.0,1767084755.458
1953779.0,1767084755.499
1953690.0,1767084755.538
1953551.0,1767084755.579
1954436.0,1767084755.619
1954724.0,1767084755.658
1954138.0,1767084755.698
1954553.0,1767084755.74
1954889.0,1767084755.779
1956047.0,1767084755.819
1957388.0,1767084755.86
1958441.0,1767084755.899
1960161.0,1767084755.939
1961202.0,1767084755.981
1963018.0,1767084756.019
1964362.0,1767084756.059
1964890.0,1767084756.1
1962881.0,1767084756.139
1960625.0,1767084756.18
1959345.0,1767084756.221
1958950.0,1767084756.26
1959287.0,1767084756.3
1960239.0,1767084756.341
1960224.0,1767084756.381
1960018.0,1767084756.42
1960542.0,1767084756.461
1961116.0,1767084756.5
1962413.0,1767084756.54
1963147.0,1767084756.582
1964343.0,1767084756.621
1966148.0,1767084756.661
1967738.0,1767084756.702
1969072.0,1767084756.741
1968583.0,1767084756.782
1966160.0,1767084756.822
1964448.0,1767084756.861
1964464.0,1767084756.901
1964605.0,1767084756.942
1964969.0,1767084756.982
1965956.0,1767084757.022
1965774.0,1767084757.063
1965858.0,1767084757.102
1966271.0,1767084757.142
1967066.0,1767084757.184
1968420.0,1767084757.222
1969125.0,1767084757.262
1970588.0,1767084757.303
1971849.0,1767084757.342
1973258.0,1767084757.383
1973278.0,1767084757.424
1970850.0,1767084757.463
1968877.0,1767084757.503
1968343.0,1767084757.544
1968286.0,1767084757.584
1969293.0,1767084757.623
1969380.0,1767084757.664
1969786.0,1767084757.703
1970103.0,1767084757.743
1970592.0,1767084757.785
1971499.0,1767084757.823
1972490.0,1767084757.864
1973962.0,1767084757.905
1974930.0,1767084757.944
1976309.0,1767084757.984
1978213.0,1767084758.025
1978615.0,1767084758.064
1976557.0,1767084758.104
1974493.0,1767084758.145
1973770.0,1767084758.185
1973660.0,1767084758.224
1974523.0,1767084758.266
1975139.0,1767084758.305
1975382.0,1767084758.345
1975330.0,1767084758.387
1975904.0,1767084758.425
1976792.0,1767084758.465
1977734.0,1767084758.506
1978922.0,1767084758.545
1980260.0,1767084758.586
1981341.0,1767084758.626
1982874.0,1767084758.665
1981771.0,1767084758.706
1979371.0,1767084758.747
1977535.0,1767084758.787
1976933.0,1767084758.826
1977054.0,1767084758.867
1977101.0,1767084758.906
1977357.0,1767084758.946
1977643.0,1767084758.988
1978170.0,1767084759.026
1979997.0,1767084759.067
1981690.0,1767084759.108
1983839.0,1767084759.147
1986036.0,1767084759.188
1988423.0,1767084759.228
1990207.0,1767084759.267
1990770.0,1767084759.307
1989100.0,1767084759.348
1987340.0,1767084759.388
1986681.0,1767084759.428
1986095.0,1767084759.469
1986413.0,1767084759.508
1987632.0,1767084759.548
1987724.0,1767084759.59
1988455.0,1767084759.628
1988565.0,1767084759.668
1989516.0,1767084759.709
1990645.0,1767084759.748
1991783.0,1767084759.789
1993322.0,1767084759.83
1994818.0,1767084759.869
1996026.0,1767084759.909
1995613.0,1767084759.95
1992861.0,1767084759.99
1991413.0,1767084760.029
1990170.0,1767084760.07
1989839.0,1767084760.109
1989967.0,1767084760.149
1990163.0,1767084760.191
1990333.0,1767084760.229
1989923.0,1767084760.27
1990086.0,1767084760.311
1991084.0,1767084760.35
1992317.0,1767084760.391
1993581.0,1767084760.431
1994310.0,1767084760.47
1996032.0,1767084760.51
1997076.0,1767084760.551
1999005.0,1767084760.591
1998921.0,1767084760.63
1996901.0,1767084760.672
1994691.0,1767084760.711
1994030.0,1767084760.751
1993076.0,1767084760.793
1993007.0,1767084760.831
1993243.0,1767084760.871
1993782.0,1767084760.912
1993977.0,1767084760.951
1994482.0,1767084760.992
1994961.0,1767084761.032
1996321.0,1767084761.072
1997257.0,1767084761.112
1998968.0,1767084761.153
2000094.0,1767084761.193
2001609.0,1767084761.232
2002906.0,1767084761.273
2004684.0,1767084761.312
2006625.0,1767084761.352
2008360.0,1767084761.394
2008760.0,1767084761.432
2007091.0,1767084761.472
2005692.0,1767084761.514
2004191.0,1767084761.553
2003868.0,1767084761.594
2004199.0,1767084761.636
2004547.0,1767084761.675
2004505.0,1767084761.715
2005186.0,1767084761.756
2005695.0,1767084761.796
2006065.0,1767084761.836
2007196.0,1767084761.877
2009673.0,1767084761.956
2008289.0,1767084761.916
2011328.0,1767084761.998
2012332.0,1767084762.036
2013938.0,1767084762.076
2015487.0,1767084762.117
2017079.0,1767084762.156
2018872.0,1767084762.197
2020668.0,1767084762.238
2020228.0,1767084762.277
2018358.0,1767084762.317
2017263.0,1767084762.358
2016332.0,1767084762.398
2016207.0,1767084762.437
2016061.0,1767084762.478
2016616.0,1767084762.517
2017008.0,1767084762.599
2017366.0,1767084762.638
2018361.0,1767084762.678
2019417.0,1767084762.719
2016635.0,1767084762.558
2020284.0,1767084762.758
2021299.0,1767084762.799
2022751.0,1767084762.839
2024159.0,1767084762.878
2025409.0,1767084762.919
2026884.0,1767084762.96
2028324.0,1767084763.0
2030183.0,1767084763.039
2031698.0,1767084763.08
2032611.0,1767084763.119
2031911.0,1767084763.159
2030191.0,1767084763.201
2029312.0,1767084763.24
2028841.0,1767084763.28
2028602.0,1767084763.321
2029222.0,1767084763.36
2029729.0,1767084763.401
2029538.0,1767084763.441
2030136.0,1767084763.48
2030598.0,1767084763.52
2031466.0,1767084763.561
2032504.0,1767084763.601
2033801.0,1767084763.641
2035005.0,1767084763.682
2035561.0,1767084763.721
2036975.0,1767084763.761
2038430.0,1767084763.803
2044636.0,1767084763.961
2039973.0,1767084763.841
2043022.0,1767084763.922
2041100.0,1767084763.881
2045297.0,1767084764.002
2044014.0,1767084764.042
2042711.0,1767084764.081
2041635.0,1767084764.121
2041279.0,1767084764.162
2041118.0,1767084764.202
2041406.0,1767084764.242
2042039.0,1767084764.283
2042413.0,1767084764.362
2041807.0,1767084764.322
2042790.0,1767084764.404
2043832.0,1767084764.442
2044523.0,1767084764.482
2045224.0,1767084764.523
2046390.0,1767084764.562
2047557.0,1767084764.603
2048609.0,1767084764.643
2050113.0,1767084764.682
2051649.0,1767084764.723
2052810.0,1767084764.764
2054056.0,1767084764.803
2055697.0,1767084764.843
2056548.0,1767084764.884
2055375.0,1767084764.923
2053751.0,1767084764.963
2052605.0,1767084765.005
2052501.0,1767084765.043
2052461.0,1767084765.083
2052751.0,1767084765.124
2052637.0,1767084765.164
2052827.0,1767084765.204
2053143.0,1767084765.245
2053096.0,1767084765.284
2054085.0,1767084765.324
2054916.0,1767084765.365
2055763.0,1767084765.404
2056589.0,1767084765.444
2057563.0,1767084765.485
2058729.0,1767084765.524
2059973.0,1767084765.564
2061010.0,1767084765.606
2062412.0,1767084765.644
2063450.0,1767084765.684
2064997.0,1767084765.725
2064493.0,1767084765.765
2062933.0,1767084765.805
2061655.0,1767084765.846
2061366.0,1767084765.885
2060698.0,1767084765.925
2060702.0,1767084765.966
2061661.0,1767084766.006
2061381.0,1767084766.045
2061608.0,1767084766.086
2061800.0,1767084766.125
2062447.0,1767084766.165
2062626.0,1767084766.207
2063544.0,1767084766.245
2064746.0,1767084766.286
2065836.0,1767084766.327
2066413.0,1767084766.366
2067953.0,1767084766.406
2069151.0,1767084766.447
2070165.0,1767084766.486
2071310.0,1767084766.526
2072013.0,1767084766.567
2069900.0,1767084766.607
2068326.0,1767084766.646
2068105.0,1767084766.687
2067720.0,1767084766.726
2067761.0,1767084766.767
2068391.0,1767084766.808
2068499.0,1767084766.847
2068109.0,1767084766.888
2068012.0,1767084766.928
2068823.0,1767084766.967
2069647.0,1767084767.008
2069994.0,1767084767.048
2071004.0,1767084767.087
2071965.0,1767084767.127
2072531.0,1767084767.168
2073750.0,1767084767.208
2074673.0,1767084767.248
2075992.0,1767084767.289
2075628.0,1767084767.328
2074091.0,1767084767.368
2072946.0,1767084767.41
2072121.0,1767084767.448
2071633.0,1767084767.488
2072410.0,1767084767.529
2072808.0,1767084767.568
2072650.0,1767084767.609
2072566.0,1767084767.65
2072752.0,1767084767.689
2073390.0,1767084767.729
2074433.0,1767084767.77
2075345.0,1767084767.81
2075825.0,1767084767.849
2076963.0,1767084767.89
2078149.0,1767084767.929
2079541.0,1767084767.969
2080664.0,1767084768.011
2080144.0,1767084768.049
2078853.0,1767084768.09
2077539.0,1767084768.131
2077431.0,1767084768.17
2077406.0,1767084768.21
2078338.0,1767084768.251
2078996.0,1767084768.29
2078865.0,1767084768.33
2079054.0,1767084768.371
2079754.0,1767084768.411
2080107.0,1767084768.45
2081375.0,1767084768.491
2082276.0,1767084768.53
2082873.0,1767084768.57
2083982.0,1767084768.612
2085432.0,1767084768.651
2086231.0,1767084768.691
2085198.0,1767084768.732
2083581.0,1767084768.771
2083250.0,1767084768.812
2083525.0,1767084768.852
2084080.0,1767084768.891
2084279.0,1767084768.931
2085185.0,1767084768.973
2085037.0,1767084769.012
2085511.0,1767084769.052
2086162.0,1767084769.093
2086896.0,1767084769.132
2087678.0,1767084769.172
2088851.0,1767084769.214
2090183.0,1767084769.252
2091054.0,1767084769.292
2091663.0,1767084769.333
2089954.0,1767084769.372
2088930.0,1767084769.413
2088758.0,1767084769.454
2088500.0,1767084769.493
2088853.0,1767084769.533
2088746.0,1767084769.574
2089289.0,1767084769.614
2089240.0,1767084769.653
2089770.0,1767084769.694
2090387.0,1767084769.733
2091379.0,1767084769.773
2092251.0,1767084769.815
2092790.0,1767084769.854
2093652.0,1767084769.894
2094785.0,1767084769.935
2094993.0,1767084769.974
2093608.0,1767084770.015
2092049.0,1767084770.055
2091389.0,1767084770.094
2090970.0,1767084770.134
2090663.0,1767084770.176
2091130.0,1767084770.215
2091307.0,1767084770.255
2090702.0,1767084770.296
2090988.0,1767084770.335
2091352.0,1767084770.375
2091914.0,1767084770.417
2092344.0,1767084770.455
2093307.0,1767084770.495
2093936.0,1767084770.536
2094937.0,1767084770.575
2095500.0,1767084770.616
2094767.0,1767084770.657
2092474.0,1767084770.696
2091127.0,1767084770.736
2090316.0,1767084770.777
2089286.0,1767084770.817
2089314.0,1767084770.856
2089087.0,1767084770.897
2088840.0,1767084770.936
2088963.0,1767084770.976
2089013.0,1767084771.018
2089036.0,1767084771.057
2089611.0,1767084771.097
2090350.0,1767084771.138
2090398.0,1767084771.177
2091162.0,1767084771.218
2091998.0,1767084771.258
2092759.0,1767084771.297
2093362.0,1767084771.337
2092567.0,1767084771.378
2090920.0,1767084771.418
2089506.0,1767084771.457
2087805.0,1767084771.499
2087313.0,1767084771.538
2086591.0,1767084771.578
2086277.0,1767084771.62
2086326.0,1767084771.658
2085768.0,1767084771.698
2085443.0,1767084771.739
2085694.0,1767084771.819
2085482.0,1767084771.778
2086634.0,1767084771.859
2086577.0,1767084771.899
2087331.0,1767084771.939
2087696.0,1767084771.98
2088282.0,1767084772.02
2089198.0,1767084772.059
2089794.0,1767084772.1
2090747.0,1767084772.179
2090702.0,1767084772.139
2088481.0,1767084772.221
2086358.0,1767084772.259
2084948.0,1767084772.299
2083063.0,1767084772.38
2082732.0,1767084772.42
2084125.0,1767084772.341
2082653.0,1767084772.461
2082021.0,1767084772.5
2081979.0,1767084772.54
2081496.0,1767084772.581
2081720.0,1767084772.621
2082436.0,1767084772.66
2082690.0,1767084772.701
2082956.0,1767084772.741
2083642.0,1767084772.781
2083910.0,1767084772.822
2084482.0,1767084772.861
2085379.0,1767084772.901
2086187.0,1767084772.942
2087003.0,1767084772.981
2085406.0,1767084773.022
2083583.0,1767084773.062
2082010.0,1767084773.101
2081424.0,1767084773.141
2080464.0,1767084773.183
2080087.0,1767084773.222
2080067.0,1767084773.262
2079788.0,1767084773.303
2079702.0,1767084773.342
2079482.0,1767084773.382
2079502.0,1767084773.424
2080182.0,1767084773.462
2080790.0,1767084773.502
2081299.0,1767084773.543
2081532.0,1767084773.582
2082213.0,1767084773.623
2083000.0,1767084773.664
2084044.0,1767084773.704
2084812.0,1767084773.744
2086204.0,1767084773.785
2086602.0,1767084773.824
2085629.0,1767084773.864
2084095.0,1767084773.905
2082569.0,1767084773.944
2082223.0,1767084773.984
2082127.0,1767084774.026
2082012.0,1767084774.064
2082152.0,1767084774.105
2082287.0,1767084774.146
2081944.0,1767084774.185
2082853.0,1767084774.226
2083170.0,1767084774.266
2084101.0,1767084774.305
2084576.0,1767084774.345
2086495.0,1767084774.426
2085816.0,1767084774.386
2087374.0,1767084774.466
2088685.0,1767084774.507
2089626.0,1767084774.546
2090669.0,1767084774.586
2090811.0,1767084774.628
2088618.0,1767084774.747
2088245.0,1767084774.786
2089808.0,1767084774.666
2088852.0,1767084774.706
2088690.0,1767084774.827
2089259.0,1767084774.868
2089341.0,1767084774.907
2089750.0,1767084774.947
2089727.0,1767084774.988
2090400.0,1767084775.028
2091446.0,1767084775.067
2092140.0,1767084775.108
2094226.0,1767084775.188
2095340.0,1767084775.229
2096451.0,1767084775.268
2095627.0,1767084775.429
2095289.0,1767084775.469
2095155.0,1767084775.508
2095731.0,1767084775.548
2096646.0,1767084775.629
2095982.0,1767084775.589
2096378.0,1767084775.668
2093218.0,1767084775.147
2096711.0,1767084775.709
2097328.0,1767084775.748
2096694.0,1767084775.388
2098263.0,1767084775.788
2099345.0,1767084775.83
2100188.0,1767084775.869
2097251.0,1767084775.308
2097958.0,1767084775.349
2100957.0,1767084775.909
2103961.0,1767084776.07
2103194.0,1767084775.989
2104288.0,1767084776.03
2101954.0,1767084775.95
2102713.0,1767084776.109
2101484.0,1767084776.149
2100757.0,1767084776.19
2100705.0,1767084776.23
2100505.0,1767084776.269
2102458.0,1767084776.51
2104095.0,1767084776.59
2100631.0,1767084776.31
2101239.0,1767084776.349
2100644.0,1767084776.389
2101365.0,1767084776.431
2103155.0,1767084776.551
2105152.0,1767084776.631
2105896.0,1767084776.671
2106828.0,1767084776.71
2107856.0,1767084776.75
2101482.0,1767084776.47
2107265.0,1767084776.831
2104255.0,1767084776.911
2103783.0,1767084776.95
2103643.0,1767084776.99
2105382.0,1767084776.87
2108422.0,1767084776.791
2103353.0,1767084777.032
2103624.0,1767084777.071
2103600.0,1767084777.111
2103640.0,1767084777.152
2104085.0,1767084777.191
2104746.0,1767084777.272
2103928.0,1767084777.232
2105511.0,1767084777.311
2106263.0,1767084777.351
2108144.0,1767084777.432
2109833.0,1767084777.512
2108505.0,1767084777.471
2110333.0,1767084777.552
2107259.0,1767084777.392
2109677.0,1767084777.592
2108041.0,1767084777.633
2106248.0,1767084777.672
2105528.0,1767084777.712
2104838.0,1767084777.753
2105035.0,1767084777.792
2104486.0,1767084777.833
2104647.0,1767084777.873
2104315.0,1767084777.912
2104278.0,1767084777.952
2104382.0,1767084777.993
2105058.0,1767084778.033
2105525.0,1767084778.073
2106359.0,1767084778.114
2106649.0,1767084778.153
2107167.0,1767084778.193
2108475.0,1767084778.235
2108923.0,1767084778.273
2110063.0,1767084778.313
2109384.0,1767084778.354
2106828.0,1767084778.393
2105066.0,1767084778.434
2104087.0,1767084778.474
2103264.0,1767084778.513
2102667.0,1767084778.554
2102421.0,1767084778.595
2102437.0,1767084778.634
2101691.0,1767084778.674
2101522.0,1767084778.715
2101135.0,1767084778.754
2101428.0,1767084778.794
2101968.0,1767084778.836
2102729.0,1767084778.874
2102851.0,1767084778.914
2103365.0,1767084778.955
2104091.0,1767084778.991
2104878.0,1767084779.032
2105522.0,1767084779.072
2105581.0,1767084779.112
2102791.0,1767084779.152
2100257.0,1767084779.193
2098682.0,1767084779.233
2097679.0,1767084779.273
2097159.0,1767084779.314
2096667.0,1767084779.345
2096128.0,1767084779.385
2095257.0,1767084779.427
2095029.0,1767084779.466
2095021.0,1767084779.506
2094912.0,1767084779.547
2094740.0,1767084779.586
2095341.0,1767084779.627
2095449.0,1767084779.667
2095973.0,1767084779.706
2096458.0,1767084779.746
2097072.0,1767084779.787
2097417.0,1767084779.827
2095034.0,1767084779.867
2092344.0,1767084779.908
2090692.0,1767084779.947
2089617.0,1767084779.987
2089523.0,1767084780.029
2088797.0,1767084780.067
2088510.0,1767084780.107
2087589.0,1767084780.148
2086833.0,1767084780.187
2086692.0,1767084780.228
2086452.0,1767084780.269
2086636.0,1767084780.308
2086784.0,1767084780.348
2087038.0,1767084780.39
2087637.0,1767084780.43
2087896.0,1767084780.47
2087017.0,1767084780.509
2083384.0,1767084780.547
2081024.0,1767084780.573
2078494.0,1767084780.615
2077763.0,1767084780.653
2077040.0,1767084780.693
2075989.0,1767084780.734
2075395.0,1767084780.773
2073948.0,1767084780.814
2073320.0,1767084780.854
2073273.0,1767084780.893
2072951.0,1767084780.934
2072644.0,1767084780.975
2073128.0,1767084781.014
2072765.0,1767084781.054
2073501.0,1767084781.095
2072790.0,1767084781.134
2069475.0,1767084781.174
2065387.0,1767084781.216
2062072.0,1767084781.254
2060277.0,1767084781.294
2057878.0,1767084781.336
2056854.0,1767084781.373
2055629.0,1767084781.414
2053749.0,1767084781.455
2052813.0,1767084781.494
2051088.0,1767084781.534
2050707.0,1767084781.576
2050356.0,1767084781.615
2049754.0,1767084781.655
2050360.0,1767084781.696
2049868.0,1767084781.733
2050469.0,1767084781.773
2048542.0,1767084781.806
2044044.0,1767084781.844
2040524.0,1767084781.884
2037752.0,1767084781.925
2036108.0,1767084781.964
2034737.0,1767084782.005
2033693.0,1767084782.045
2032796.0,1767084782.084
2031390.0,1767084782.124
2030769.0,1767084782.166
2029999.0,1767084782.205
2029539.0,1767084782.245
2029720.0,1767084782.286
2030094.0,1767084782.325
2030629.0,1767084782.365
2030734.0,1767084782.407
2031090.0,1767084782.445
2030212.0,1767084782.485
2026494.0,1767084782.521
2023066.0,1767084782.555
2020949.0,1767084782.593
2019805.0,1767084782.634
2019430.0,1767084782.673
2019084.0,1767084782.713
2018248.0,1767084782.754
2017124.0,1767084782.794
2017076.0,1767084782.833
2017761.0,1767084782.875
2017969.0,1767084782.914
2018779.0,1767084782.954
2019483.0,1767084782.996
2020641.0,1767084783.031
2021933.0,1767084783.071
2022933.0,1767084783.112
2022600.0,1767084783.151
2019904.0,1767084783.192
2017003.0,1767084783.232
2015697.0,1767084783.271
2015122.0,1767084783.312
2015006.0,1767084783.353
2015486.0,1767084783.393
2014892.0,1767084783.432
2014850.0,1767084783.473
2014458.0,1767084783.512
2014984.0,1767084783.552
2015668.0,1767084783.594
2016747.0,1767084783.632
2018076.0,1767084783.672
2019086.0,1767084783.713
2020015.0,1767084783.752
2021350.0,1767084783.794
2021171.0,1767084783.835
2018935.0,1767084783.873
2016894.0,1767084783.913
2015480.0,1767084783.955
2015306.0,1767084783.995
2015973.0,1767084784.034
2015994.0,1767084784.075
2016228.0,1767084784.115
2016231.0,1767084784.155
2016234.0,1767084784.197
2016949.0,1767084784.235
2018013.0,1767084784.271
2019046.0,1767084784.312
2020372.0,1767084784.352
2021390.0,1767084784.392
2022997.0,1767084784.433
2023582.0,1767084784.472
2021579.0,1767084784.512
2018857.0,1767084784.553
2017115.0,1767084784.593
2016551.0,1767084784.632
2016626.0,1767084784.673
2016699.0,1767084784.712
2016934.0,1767084784.753
2016390.0,1767084784.794
2016345.0,1767084784.833
2017136.0,1767084784.873
2017817.0,1767084784.914
2018982.0,1767084784.953
2019937.0,1767084784.994
2021103.0,1767084785.035
2022127.0,1767084785.074
2023687.0,1767084785.114
2023274.0,1767084785.155
2020663.0,1767084785.195
2018714.0,1767084785.235
2016938.0,1767084785.276
2016274.0,1767084785.315
2016179.0,1767084785.356
2016663.0,1767084785.397
2018947.0,1767084785.436
2020407.0,1767084785.474
2021241.0,1767084785.509
2021979.0,1767084785.548
2022321.0,1767084785.589
2023087.0,1767084785.651
2023616.0,1767084785.691
2023994.0,1767084785.731
2024926.0,1767084785.772
2025498.0,1767084785.812
2025060.0,1767084785.851
2022724.0,1767084785.892
2020013.0,1767084785.931
2018158.0,1767084785.971
2017247.0,1767084786.013
2016657.0,1767084786.051
2016897.0,1767084786.092
2016535.0,1767084786.133
2016151.0,1767084786.172
2015865.0,1767084786.212
2016088.0,1767084786.25
2016469.0,1767084786.283
2017410.0,1767084786.316
2018774.0,1767084786.357
2019560.0,1767084786.397
2020420.0,1767084786.436
2021823.0,1767084786.478
2023280.0,1767084786.517
2021909.0,1767084786.558
2019099.0,1767084786.6
2016264.0,1767084786.678
2017181.0,1767084786.638
2015658.0,1767084786.718
2015989.0,1767084786.755
2015989.0,1767084786.796
2016080.0,1767084786.836
2015787.0,1767084786.875
2015500.0,1767084786.915
2015924.0,1767084786.957
2016641.0,1767084786.996
2017334.0,1767084787.036
2018655.0,1767084787.077
2019482.0,1767084787.116
2020699.0,1767084787.156
2022112.0,1767084787.198
2022867.0,1767084787.236
2023480.0,1767084787.276
2020945.0,1767084787.317
2018870.0,1767084787.356
2017625.0,1767084787.397
2016748.0,1767084787.438
2016939.0,1767084787.477
2017544.0,1767084787.518
2017091.0,1767084787.559
2016519.0,1767084787.599
2016788.0,1767084787.639
2016834.0,1767084787.68
2017951.0,1767084787.719
2018785.0,1767084787.759
2019728.0,1767084787.802
2020599.0,1767084787.84
2021907.0,1767084787.88
2022832.0,1767084787.92
2024197.0,1767084787.958
2022298.0,1767084787.996
2019615.0,1767084788.037
2017494.0,1767084788.076
2015882.0,1767084788.116
2015335.0,1767084788.157
2015420.0,1767084788.197
2014925.0,1767084788.236
2014703.0,1767084788.277
2014255.0,1767084788.316
2014136.0,1767084788.356
2014590.0,1767084788.398
2015087.0,1767084788.436
2016280.0,1767084788.477
2016830.0,1767084788.518
2017842.0,1767084788.557
2018913.0,1767084788.597
2020004.0,1767084788.638
2020124.0,1767084788.677
2017897.0,1767084788.718
2015130.0,1767084788.759
2012984.0,1767084788.799
2011676.0,1767084788.839
2010752.0,1767084788.879
2010665.0,1767084788.918
2010753.0,1767084788.959
2010239.0,1767084789.001
2009757.0,1767084789.04
2009925.0,1767084789.08
2010521.0,1767084789.121
2011364.0,1767084789.161
2012262.0,1767084789.201
2013304.0,1767084789.242
2013829.0,1767084789.279
2015300.0,1767084789.319
2016458.0,1767084789.361
2017529.0,1767084789.401
2016713.0,1767084789.44
2014330.0,1767084789.482
2011934.0,1767084789.515
2010437.0,1767084789.555
2009919.0,1767084789.597
2009837.0,1767084789.635
2009474.0,1767084789.675
2009748.0,1767084789.716
2009138.0,1767084789.755
2009207.0,1767084789.796
2009863.0,1767084789.837
2010395.0,1767084789.876
2011460.0,1767084789.916
2012717.0,1767084789.957
2013477.0,1767084789.997
2014703.0,1767084790.036
2016115.0,1767084790.077
2017600.0,1767084790.116
2019066.0,1767084790.156
2019320.0,1767084790.19
2017201.0,1767084790.221
2015099.0,1767084790.259
2013926.0,1767084790.3
2012957.0,1767084790.339
2013171.0,1767084790.38
2012980.0,1767084790.421
2013795.0,1767084790.46
2013487.0,1767084790.5
2013290.0,1767084790.542
2014285.0,1767084790.581
2014664.0,1767084790.619
2015774.0,1767084790.66
2017101.0,1767084790.699
2018214.0,1767084790.733
2019661.0,1767084790.774
2021317.0,1767084790.813
2022538.0,1767084790.853
2024295.0,1767084790.894
2025941.0,1767084790.933
2026728.0,1767084790.974
2025362.0,1767084791.014
2023233.0,1767084791.053
2022687.0,1767084791.093
2022906.0,1767084791.134
2023475.0,1767084791.174
2024354.0,1767084791.214
2024697.0,1767084791.255
2025167.0,1767084791.294
2025364.0,1767084791.334
2026494.0,1767084791.376
2027723.0,1767084791.414
2029306.0,1767084791.454
2030620.0,1767084791.495
2031920.0,1767084791.534
2033200.0,1767084791.575
2035075.0,1767084791.615
2036453.0,1767084791.655
2036974.0,1767084791.695
2036062.0,1767084791.736
2034316.0,1767084791.775
2034037.0,1767084791.815
2034015.0,1767084791.856
2035284.0,1767084791.895
2035653.0,1767084791.935
2036444.0,1767084791.977
2036462.0,1767084792.015
2037296.0,1767084792.055
2038012.0,1767084792.097
2039144.0,1767084792.136
2040342.0,1767084792.176
2042021.0,1767084792.217
2043260.0,1767084792.256
2044565.0,1767084792.296
2046036.0,1767084792.337
2046627.0,1767084792.377
2045406.0,1767084792.416
2043473.0,1767084792.457
2042459.0,1767084792.496
2041878.0,1767084792.536
2042201.0,1767084792.578
2042566.0,1767084792.617
2042737.0,1767084792.657
2042945.0,1767084792.699
2043069.0,1767084792.738
2043582.0,1767084792.779
2045011.0,1767084792.819
2045967.0,1767084792.86
2046865.0,1767084792.9
2048004.0,1767084792.942
2049048.0,1767084792.981
2050565.0,1767084793.02
2051943.0,1767084793.061
2051065.0,1767084793.101
2049118.0,1767084793.141
2047505.0,1767084793.181
2046504.0,1767084793.211
2046326.0,1767084793.251
2046333.0,1767084793.292
2046537.0,1767084793.331
2046760.0,1767084793.372
2046358.0,1767084793.412
2046591.0,1767084793.451
2046992.0,1767084793.491
2048869.0,1767084793.572
2047905.0,1767084793.533
2050128.0,1767084793.612
2050703.0,1767084793.653
2052085.0,1767084793.692
2053010.0,1767084793.732
2054860.0,1767084793.774
2054678.0,1767084793.812
2052718.0,1767084793.852
2050664.0,1767084793.894
2049625.0,1767084793.929
2049043.0,1767084793.964
2049396.0,1767084794.001
2049948.0,1767084794.04
2049771.0,1767084794.08
2049990.0,1767084794.121
2049785.0,1767084794.162
2050579.0,1767084794.201
2051272.0,1767084794.243
2051804.0,1767084794.282
2053101.0,1767084794.322
2054012.0,1767084794.364
2055235.0,1767084794.402
2055235.0,1767084794.439
2056422.0,1767084794.48
2057904.0,1767084794.519
2058920.0,1767084794.56
2059084.0,1767084794.6
2056967.0,1767084794.639
2055863.0,1767084794.68
2055275.0,1767084794.721
2055334.0,1767084794.76
2055804.0,1767084794.8
2056453.0,1767084794.841
2056488.0,1767084794.88
2056750.0,1767084794.92
2057410.0,1767084794.962
2058357.0,1767084795.0
2059244.0,1767084795.04
2060083.0,1767084795.081
2061305.0,1767084795.121
2063605.0,1767084795.203
2062601.0,1767084795.162
2065795.0,1767084795.282
2064988.0,1767084795.324
2065209.0,1767084795.242
2062267.0,1767084795.403
2062768.0,1767084795.364
2062560.0,1767084795.484
2062086.0,1767084795.444
2063261.0,1767084795.524
2063802.0,1767084795.566
2063409.0,1767084795.602
2064512.0,1767084795.677
2063791.0,1767084795.642
2066364.0,1767084795.756
2065456.0,1767084795.716
2067465.0,1767084795.797
2068863.0,1767084795.836
2069547.0,1767084795.876
2071221.0,1767084795.917
2071055.0,1767084795.957
2069367.0,1767084795.996
2067486.0,1767084796.038
2066825.0,1767084796.077
2066134.0,1767084796.117
2066353.0,1767084796.158
2066512.0,1767084796.197
2066744.0,1767084796.237
2066261.0,1767084796.278
2066434.0,1767084796.317
2067089.0,1767084796.357
2067852.0,1767084796.398
2068491.0,1767084796.432
2069529.0,1767084796.47
2070471.0,1767084796.506
2071314.0,1767084796.542
2072413.0,1767084796.582
2071859.0,1767084796.623
2069867.0,1767084796.662
2067782.0,1767084796.702
2067152.0,1767084796.744
2066623.0,1767084796.782
2066312.0,1767084796.824
2066616.0,1767084796.862
2066694.0,1767084796.897
2066740.0,1767084796.938
2066685.0,1767084796.978
2066605.0,1767084797.017
2067290.0,1767084797.058
2068140.0,1767084797.099
2069096.0,1767084797.138
2070122.0,1767084797.178
2071019.0,1767084797.219
2072570.0,1767084797.258
2073348.0,1767084797.298
2073066.0,1767084797.34
2071118.0,1767084797.378
2069393.0,1767084797.418
2069060.0,1767084797.459
2069104.0,1767084797.498
2068955.0,1767084797.539
2069585.0,1767084797.578
2069496.0,1767084797.617
2069170.0,1767084797.656
2069455.0,1767084797.695
2070092.0,1767084797.734
2074072.0,1767084797.89
2074965.0,1767084797.929
2076704.0,1767084797.968
2077295.0,1767084798.007
2078831.0,1767084798.046
2078499.0,1767084798.085
2076784.0,1767084798.124
2075528.0,1767084798.163
2071403.0,1767084797.773
2075240.0,1767084798.202
2072128.0,1767084797.812
2072911.0,1767084797.851
2075318.0,1767084798.241
2075421.0,1767084798.28
2076057.0,1767084798.319
2076088.0,1767084798.358
2076420.0,1767084798.397
2076911.0,1767084798.436
2077761.0,1767084798.475
2078565.0,1767084798.514
2079739.0,1767084798.553
2081085.0,1767084798.592
2081978.0,1767084798.631
2083297.0,1767084798.67
2084823.0,1767084798.709
2086606.0,1767084798.787
2086279.0,1767084798.826
2086059.0,1767084798.748
2084962.0,1767084798.865
2084693.0,1767084798.904
2084972.0,1767084798.943
2085208.0,1767084798.982
2085838.0,1767084799.021
2086670.0,1767084799.06
2086722.0,1767084799.099
2087725.0,1767084799.138
2088246.0,1767084799.177
2089230.0,1767084799.216
2090159.0,1767084799.255
2091169.0,1767084799.294
2092153.0,1767084799.333
2093603.0,1767084799.372
2094799.0,1767084799.411
2095117.0,1767084799.45
2093724.0,1767084799.489
2093016.0,1767084799.528
2092573.0,1767084799.567
2092733.0,1767084799.606
2092842.0,1767084799.645
2093201.0,1767084799.723
2093348.0,1767084799.762
2093091.0,1767084799.684
2093447.0,1767084799.801
2094312.0,1767084799.84
2094715.0,1767084799.879
2095556.0,1767084799.918
2096479.0,1767084799.957
2097683.0,1767084799.996
2098641.0,1767084800.035
2098121.0,1767084800.152
2099581.0,1767084800.113
2099816.0,1767084800.074
2095307.0,1767084800.23
2095150.0,1767084800.308
2095144.0,1767084800.347
2095246.0,1767084800.386
2096295.0,1767084800.191
2094863.0,1767084800.269
2095417.0,1767084800.464
2095285.0,1767084800.425
2095660.0,1767084800.503
2095982.0,1767084800.542
2097180.0,1767084800.581
2097622.0,1767084800.62
2098357.0,1767084800.659
2099427.0,1767084800.698
2099334.0,1767084800.737
2098839.0,1767084800.776
2096536.0,1767084800.815
2093404.0,1767084800.854
2090871.0,1767084800.893
2089961.0,1767084800.932
2088632.0,1767084800.971
2088788.0,1767084801.01
2088532.0,1767084801.049
2087954.0,1767084801.088
2087404.0,1767084801.127
2085483.0,1767084801.166
2083386.0,1767084801.205
2081104.0,1767084801.244
2078765.0,1767084801.283
2076797.0,1767084801.322
2075406.0,1767084801.361
2074047.0,1767084801.4
2073359.0,1767084801.439
2073459.0,1767084801.478
2072357.0,1767084801.517
2070572.0,1767084801.556
2068879.0,1767084801.595
2068537.0,1767084801.634
2068556.0,1767084801.673
2069014.0,1767084801.712
2069014.0,1767084801.751
2069151.0,1767084801.79
2069079.0,1767084801.829
2069134.0,1767084801.868
2069164.0,1767084801.907
2069955.0,1767084801.946
2070682.0,1767084801.985
2071526.0,1767084802.024
2072476.0,1767084802.063
2073199.0,1767084802.102
2074401.0,1767084802.141
2075126.0,1767084802.181
2075709.0,1767084802.221
2074848.0,1767084802.261
2072409.0,1767084802.301
2071104.0,1767084802.341
2070590.0,1767084802.381
2070068.0,1767084802.421
2070590.0,1767084802.461
2070170.0,1767084802.501
2070180.0,1767084802.541
2069948.0,1767084802.581
2069746.0,1767084802.621
2070436.0,1767084802.661
2070716.0,1767084802.701
2071437.0,1767084802.741
2072204.0,1767084802.781
2072854.0,1767084802.821
2073935.0,1767084802.861
2074536.0,1767084802.901
2073332.0,1767084802.941
2070851.0,1767084802.981
2069583.0,1767084803.021
2068681.0,1767084803.061
2068115.0,1767084803.101
2068311.0,1767084803.141
2068194.0,1767084803.181
2067201.0,1767084803.221
2067467.0,1767084803.261
2067574.0,1767084803.301
2067414.0,1767084803.341
2068282.0,1767084803.381
2068501.0,1767084803.421
2069384.0,1767084803.461
2070348.0,1767084803.501
2070747.0,1767084803.541
2069329.0,1767084803.581
2066795.0,1767084803.621
2064156.0,1767084803.661
2062985.0,1767084803.701
2061930.0,1767084803.741
2061815.0,1767084803.781
2061632.0,1767084803.821
2061057.0,1767084803.861
2060008.0,1767084803.901
2059657.0,1767084803.941
2059661.0,1767084803.981
2060098.0,1767084804.021
2060246.0,1767084804.061
2060698.0,1767084804.101
2061672.0,1767084804.141
2061914.0,1767084804.181
2061309.0,1767084804.221
2058004.0,1767084804.261
2055568.0,1767084804.301
2053686.0,1767084804.341
2052620.0,1767084804.381
2051415.0,1767084804.421
2050944.0,1767084804.461
2050488.0,1767084804.501
2049869.0,1767084804.541
2049636.0,1767084804.581
2049414.0,1767084804.621
2049724.0,1767084804.661
2049822.0,1767084804.701
2050360.0,1767084804.741
2051246.0,1767084804.781
2052043.0,1767084804.821
2052554.0,1767084804.861
2051977.0,1767084804.901
2048940.0,1767084804.941
2047005.0,1767084804.981
2045535.0,1767084805.021
2044521.0,1767084805.061
2044197.0,1767084805.101
2043896.0,1767084805.141
2043793.0,1767084805.181
2043343.0,1767084805.221
2042888.0,1767084805.261
2042973.0,1767084805.301
2043639.0,1767084805.341
2044105.0,1767084805.381
2044878.0,1767084805.421
2044878.0,1767084805.461
2045458.0,1767084805.501
2046445.0,1767084805.541
2047646.0,1767084805.581
2048149.0,1767084805.621
2047665.0,1767084805.661
2045391.0,1767084805.701
2043582.0,1767084805.741
2042706.0,1767084805.781
2042370.0,1767084805.821
2042168.0,1767084805.861
2041873.0,1767084805.901
2041557.0,1767084805.941
2041733.0,1767084805.981
2041589.0,1767084806.021
2041962.0,1767084806.061
2042799.0,1767084806.101
2043640.0,1767084806.141
2044724.0,1767084806.181
2045621.0,1767084806.221
2046292.0,1767084806.261
2047646.0,1767084806.301
2048584.0,1767084806.341
2049680.0,1767084806.381
2048506.0,1767084806.421
2046724.0,1767084806.461
2045954.0,1767084806.501
2045313.0,1767084806.541
2045085.0,1767084806.581
2045939.0,1767084806.621
2046106.0,1767084806.661
2045955.0,1767084806.701
2046500.0,1767084806.741
2046687.0,1767084806.781
2047785.0,1767084806.821
2048318.0,1767084806.861
2049547.0,1767084806.901
2050906.0,1767084806.941
2051717.0,1767084806.981
2053254.0,1767084807.021
2054329.0,1767084807.061
2055263.0,1767084807.101
2055099.0,1767084807.141
2053276.0,1767084807.181
2052865.0,1767084807.221
2052770.0,1767084807.261
2052849.0,1767084807.301
2053967.0,1767084807.341
2054145.0,1767084807.381
2054192.0,1767084807.421
2054691.0,1767084807.461
2055457.0,1767084807.501
2056489.0,1767084807.541
2057251.0,1767084807.581
2058467.0,1767084807.621
2059509.0,1767084807.661
2060910.0,1767084807.701
2062302.0,1767084807.741
2063210.0,1767084807.781
2062514.0,1767084807.821
2060799.0,1767084807.861
2060286.0,1767084807.901
2059696.0,1767084807.941
2059995.0,1767084807.981
2060299.0,1767084808.021
2060902.0,1767084808.061
2060933.0,1767084808.101
2061115.0,1767084808.141
2061916.0,1767084808.181
2062803.0,1767084808.221
2063883.0,1767084808.261
2064731.0,1767084808.301
2065777.0,1767084808.341
2066970.0,1767084808.381
2068196.0,1767084808.421
2069647.0,1767084808.461
2068561.0,1767084808.501
2067348.0,1767084808.541
2065920.0,1767084808.581
2064928.0,1767084808.621
2064863.0,1767084808.661
2064953.0,1767084808.701
2065515.0,1767084808.741
2065210.0,1767084808.781
2065865.0,1767084808.821
2065949.0,1767084808.861
2066251.0,1767084808.901
2067512.0,1767084808.941
2068082.0,1767084808.981
2069053.0,1767084809.021
2070115.0,1767084809.061
2071501.0,1767084809.101
2072713.0,1767084809.141
2072713.0,1767084809.181
2072649.0,1767084809.221
2071081.0,1767084809.261
2069235.0,1767084809.301
2068693.0,1767084809.341
2068262.0,1767084809.381
2068144.0,1767084809.421
2068223.0,1767084809.47
2068338.0,1767084809.509
2068332.0,1767084809.549
2068613.0,1767084809.591
2068850.0,1767084809.63
2069915.0,1767084809.67
2070549.0,1767084809.711
2071699.0,1767084809.75
2072798.0,1767084809.79
2073594.0,1767084809.832
2074963.0,1767084809.87
2076020.0,1767084809.911
2075552.0,1767084809.953
2074212.0,1767084809.992
2072811.0,1767084810.033
2071633.0,1767084810.074
2071815.0,1767084810.113
2072003.0,1767084810.153
2071893.0,1767084810.195
2072036.0,1767084810.235
2071974.0,1767084810.274
2072003.0,1767084810.316
2072548.0,1767084810.355
2073377.0,1767084810.39
2074558.0,1767084810.432
2075608.0,1767084810.47
2076182.0,1767084810.51
2077526.0,1767084810.552
2078403.0,1767084810.591
2079392.0,1767084810.631
2078388.0,1767084810.672
2076692.0,1767084810.711
2075542.0,1767084810.751
2075128.0,1767084810.792
2075315.0,1767084810.832
2075326.0,1767084810.871
2075720.0,1767084810.912
2075705.0,1767084810.951
2075703.0,1767084810.991
2075896.0,1767084811.033
2076479.0,1767084811.072
2077350.0,1767084811.113
2078191.0,1767084811.154
2079092.0,1767084811.194
2080416.0,1767084811.234
2081146.0,1767084811.275
2082131.0,1767084811.314
2082052.0,1767084811.354
2080804.0,1767084811.396
2079181.0,1767084811.436
2078889.0,1767084811.475
2078409.0,1767084811.517
2078797.0,1767084811.556
2079507.0,1767084811.594
2079495.0,1767084811.636
2079648.0,1767084811.675
2079348.0,1767084811.71
2080267.0,1767084811.751
2080723.0,1767084811.79
2081760.0,1767084811.831
2082308.0,1767084811.871
2083388.0,1767084811.91
2084194.0,1767084811.95
2085023.0,1767084811.992
2083332.0,1767084812.031
2081584.0,1767084812.071
2080390.0,1767084812.112
2080383.0,1767084812.151
2080221.0,1767084812.191
2080868.0,1767084812.233
2080730.0,1767084812.271
2080577.0,1767084812.311
2080556.0,1767084812.352
2080843.0,1767084812.391
2081177.0,1767084812.433
2082037.0,1767084812.474
2083215.0,1767084812.513
2083497.0,1767084812.554
2084792.0,1767084812.595
2084207.0,1767084812.635
2082448.0,1767084812.675
2080586.0,1767084812.716
2079251.0,1767084812.754
2078759.0,1767084812.786
2078794.0,1767084812.827
2078517.0,1767084812.866
2078410.0,1767084812.906
2078149.0,1767084812.947
2078096.0,1767084812.986
2078578.0,1767084813.027
2078573.0,1767084813.067
2079488.0,1767084813.106
2079640.0,1767084813.146
2080828.0,1767084813.187
2081432.0,1767084813.227
2080918.0,1767084813.266
2078701.0,1767084813.308
2076120.0,1767084813.347
2075160.0,1767084813.387
2073906.0,1767084813.429
2073646.0,1767084813.467
2073565.0,1767084813.504
2073174.0,1767084813.536
2072841.0,1767084813.575
2072491.0,1767084813.616
2072510.0,1767084813.656
2072815.0,1767084813.695
2073472.0,1767084813.736
2074761.0,1767084813.815
2075899.0,1767084813.896
2074889.0,1767084813.854
2073961.0,1767084813.777
2074233.0,1767084813.935
2071690.0,1767084813.975
2069799.0,1767084814.017
2068613.0,1767084814.053
2067588.0,1767084814.084
2067076.0,1767084814.164
2067156.0,1767084814.125
2065841.0,1767084814.245
2066607.0,1767084814.205
2066036.0,1767084814.284
2066131.0,1767084814.324
2066389.0,1767084814.365
2066806.0,1767084814.405
2067034.0,1767084814.444
2067688.0,1767084814.485
2068482.0,1767084814.524
2068807.0,1767084814.565
2069485.0,1767084814.606
2065231.0,1767084814.685
2067593.0,1767084814.645
2063561.0,1767084814.726
2062659.0,1767084814.766
2062139.0,1767084814.799
2061576.0,1767084814.837
2061515.0,1767084814.876
2060631.0,1767084814.916
2061049.0,1767084814.958
2061172.0,1767084815.037
2061182.0,1767084815.078
2061703.0,1767084815.117
2060776.0,1767084814.997
2062349.0,1767084815.158
2063125.0,1767084815.198
2063949.0,1767084815.236
2064744.0,1767084815.276
2064744.0,1767084815.314
2065801.0,1767084815.353
2066308.0,1767084815.394
2064558.0,1767084815.435
2062643.0,1767084815.474
2061127.0,1767084815.514
2060525.0,1767084815.555
2059987.0,1767084815.595
2059750.0,1767084815.634
2059501.0,1767084815.675
2058953.0,1767084815.714
2059064.0,1767084815.754
2058954.0,1767084815.796
2059493.0,1767084815.834
2059702.0,1767084815.874
2060347.0,1767084815.915
2061122.0,1767084815.954
2062118.0,1767084815.996
2062626.0,1767084816.037
2063475.0,1767084816.076
2064302.0,1767084816.116
2065378.0,1767084816.157
2063813.0,1767084816.197
2061807.0,1767084816.237
2060584.0,1767084816.278
2060268.0,1767084816.317
2059866.0,1767084816.358
2060457.0,1767084816.4
2060156.0,1767084816.438
2059890.0,1767084816.476
2060124.0,1767084816.517
2060403.0,1767084816.549
2061308.0,1767084816.59
2061724.0,1767084816.63
2062663.0,1767084816.669
2063577.0,1767084816.709
2064665.0,1767084816.75
2065496.0,1767084816.79
2066909.0,1767084816.829
2068170.0,1767084816.871
2067361.0,1767084816.91
2065991.0,1767084816.95
2064426.0,1767084816.992
2064294.0,1767084817.03
2064222.0,1767084817.07
2064912.0,1767084817.111
2065024.0,1767084817.15
2064968.0,1767084817.191
2065072.0,1767084817.232
2065666.0,1767084817.272
2065802.0,1767084817.312
2066929.0,1767084817.354
2067663.0,1767084817.391
2068533.0,1767084817.426
2069740.0,1767084817.468
2070787.0,1767084817.499
2071082.0,1767084817.539
2069790.0,1767084817.581
2067627.0,1767084817.619
2066616.0,1767084817.656
2066256.0,1767084817.697
2066432.0,1767084817.737
2066769.0,1767084817.772
2066595.0,1767084817.812
2066694.0,1767084817.851
2066396.0,1767084817.891
2066679.0,1767084817.932
2067362.0,1767084817.972
2068183.0,1767084818.011
2069133.0,1767084818.053
2069744.0,1767084818.092
2070915.0,1767084818.132
2071855.0,1767084818.174
2071780.0,1767084818.212
2069671.0,1767084818.252
2067571.0,1767084818.293
2066135.0,1767084818.332
2065632.0,1767084818.373
2065452.0,1767084818.413
2064991.0,1767084818.453
2065345.0,1767084818.492
2064900.0,1767084818.529
2065008.0,1767084818.569
2064883.0,1767084818.603
2065639.0,1767084818.641
2065979.0,1767084818.678
2066873.0,1767084818.718
2067791.0,1767084818.76
2068767.0,1767084818.798
2069441.0,1767084818.838
2069818.0,1767084818.88
2067516.0,1767084818.919
2065235.0,1767084818.959
2064324.0,1767084819.0
2063053.0,1767084819.039
2062869.0,1767084819.079
2062412.0,1767084819.12
2062691.0,1767084819.16
2062431.0,1767084819.199
2061915.0,1767084819.24
2062128.0,1767084819.279
2062789.0,1767084819.319
2063363.0,1767084819.361
2063911.0,1767084819.399
2064648.0,1767084819.439
2065394.0,1767084819.48
2066511.0,1767084819.519
2067848.0,1767084819.56
2066587.0,1767084819.601
2064489.0,1767084819.639
2062751.0,1767084819.68
2061978.0,1767084819.721
2061168.0,1767084819.76
2061203.0,1767084819.8
2061124.0,1767084819.841
2060510.0,1767084819.88
2060384.0,1767084819.92
2060421.0,1767084819.962
2061178.0,1767084820.001
2061291.0,1767084820.041
2062075.0,1767084820.081
2062681.0,1767084820.113
2062681.0,1767084820.154
2063714.0,1767084820.195
2064197.0,1767084820.234
2065403.0,1767084820.274
2066507.0,1767084820.315
2065326.0,1767084820.355
2063208.0,1767084820.394
2061995.0,1767084820.435
2060879.0,1767084820.474
2060404.0,1767084820.514
2060788.0,1767084820.556
2060425.0,1767084820.594
2060577.0,1767084820.634
2060441.0,1767084820.676
2060453.0,1767084820.715
2060704.0,1767084820.755
2061120.0,1767084820.796
2062472.0,1767084820.836
2062915.0,1767084820.876
2064117.0,1767084820.918
2064949.0,1767084820.958
2065861.0,1767084820.997
2066254.0,1767084821.039
2065101.0,1767084821.078
2062958.0,1767084821.118
2062428.0,1767084821.161
2061763.0,1767084821.199
2061777.0,1767084821.239
2061939.0,1767084821.28
2062262.0,1767084821.318
2062343.0,1767084821.359
2062422.0,1767084821.399
2062683.0,1767084821.438
2063096.0,1767084821.478
2063893.0,1767084821.519
2064998.0,1767084821.559
2065828.0,1767084821.598
2066674.0,1767084821.639
2067707.0,1767084821.678
2066865.0,1767084821.718
2065304.0,1767084821.76
2063510.0,1767084821.799
2063168.0,1767084821.839
2062997.0,1767084821.88
2062971.0,1767084821.919
2063326.0,1767084821.96
2062927.0,1767084822.0
2062998.0,1767084822.04
2063353.0,1767084822.08
2063533.0,1767084822.12
2064329.0,1767084822.158
2065082.0,1767084822.198
2066235.0,1767084822.24
2066699.0,1767084822.279
2067652.0,1767084822.319
2066491.0,1767084822.362
2063959.0,1767084822.4
2062102.0,1767084822.44
2061694.0,1767084822.482
2061302.0,1767084822.521
2061085.0,1767084822.561
2061163.0,1767084822.598
2061061.0,1767084822.637
2060823.0,1767084822.677
2060960.0,1767084822.718
2061470.0,1767084822.758
2062208.0,1767084822.797
2062611.0,1767084822.839
2063429.0,1767084822.878
2064151.0,1767084822.918
2065091.0,1767084822.959
2063835.0,1767084822.998
2061349.0,1767084823.038
2059663.0,1767084823.079
2058070.0,1767084823.118
2057532.0,1767084823.159
2057507.0,1767084823.199
2057345.0,1767084823.238
2057213.0,1767084823.279
2056992.0,1767084823.321
2056874.0,1767084823.36
2057037.0,1767084823.4
2057515.0,1767084823.441
2058564.0,1767084823.48
2059055.0,1767084823.521
2060199.0,1767084823.563
2060860.0,1767084823.601
2060773.0,1767084823.641
2058399.0,1767084823.683
2056651.0,1767084823.722
2055064.0,1767084823.761
2054460.0,1767084823.793
2054183.0,1767084823.833
2054343.0,1767084823.873
2054095.0,1767084823.914
2053963.0,1767084823.953
2053771.0,1767084823.993
2054175.0,1767084824.034
2054764.0,1767084824.073
2055484.0,1767084824.113
2056427.0,1767084824.155
2057123.0,1767084824.193
2058025.0,1767084824.233
2058815.0,1767084824.274
2059505.0,1767084824.313
2057830.0,1767084824.354
2056198.0,1767084824.395
2054529.0,1767084824.434
2054047.0,1767084824.474
2053559.0,1767084824.515
2054008.0,1767084824.55
2054114.0,1767084824.581
2053780.0,1767084824.623
2053798.0,1767084824.66
2054121.0,1767084824.7
2054517.0,1767084824.741
2055105.0,1767084824.78
2055741.0,1767084824.82
2056616.0,1767084824.862
2057241.0,1767084824.901
2058468.0,1767084824.942
2059445.0,1767084824.982
2061047.0,1767084825.021
2060493.0,1767084825.061
2058694.0,1767084825.103
2056930.0,1767084825.142
2056115.0,1767084825.182
2055875.0,1767084825.223
2056186.0,1767084825.262
2056286.0,1767084825.302
2056348.0,1767084825.344
2056572.0,1767084825.382
2056554.0,1767084825.422
2057281.0,1767084825.463
2058495.0,1767084825.502
2059198.0,1767084825.543
2060147.0,1767084825.583
2061513.0,1767084825.622
2062418.0,1767084825.662
2063982.0,1767084825.703
2065092.0,1767084825.741
2064956.0,1767084825.78
2063367.0,1767084825.822
2062504.0,1767084825.861
2062208.0,1767084825.901
2062300.0,1767084825.943
2063045.0,1767084825.982
2063637.0,1767084826.022
2063510.0,1767084826.063
2064290.0,1767084826.1
2064613.0,1767084826.141
2065198.0,1767084826.182
2066490.0,1767084826.221
2067607.0,1767084826.259
2068420.0,1767084826.3
2069699.0,1767084826.34
2070999.0,1767084826.379
2071583.0,1767084826.42
2070541.0,1767084826.459
2069591.0,1767084826.499
2068282.0,1767084826.541
2068406.0,1767084826.579
2068974.0,1767084826.62
2069090.0,1767084826.66
2070182.0,1767084826.699
2070084.0,1767084826.74
2070358.0,1767084826.78
2070267.0,1767084826.819
2071257.0,1767084826.859
2071983.0,1767084826.901
2073113.0,1767084826.94
2074125.0,1767084826.981
2075036.0,1767084827.022
2075849.0,1767084827.061
2074319.0,1767084827.101
2072310.0,1767084827.143
2071658.0,1767084827.181
2070828.0,1767084827.222
2071180.0,1767084827.263
2071385.0,1767084827.302
2071302.0,1767084827.34
2071673.0,1767084827.38
2071353.0,1767084827.419
2072028.0,1767084827.459
2072189.0,1767084827.5
2072929.0,1767084827.54
2073919.0,1767084827.58
2074675.0,1767084827.621
2075560.0,1767084827.66
2075549.0,1767084827.7
2073786.0,1767084827.742
2071794.0,1767084827.78
2070600.0,1767084827.82
2069711.0,1767084827.861
2069757.0,1767084827.9
2069586.0,1767084827.941
2069377.0,1767084827.981
2069753.0,1767084828.021
2069265.0,1767084828.062
2069866.0,1767084828.102
2070535.0,1767084828.142
2071043.0,1767084828.181
2072100.0,1767084828.222
2073419.0,1767084828.262
2073889.0,1767084828.302
2074508.0,1767084828.344
2073149.0,1767084828.382
2071002.0,1767084828.423
2069771.0,1767084828.464
2069005.0,1767084828.503
2068558.0,1767084828.544
2068748.0,1767084828.584
2068249.0,1767084828.623
2068109.0,1767084828.663
2068102.0,1767084828.704
2068653.0,1767084828.744
2069088.0,1767084828.784
2069445.0,1767084828.825
2070416.0,1767084828.864
2071146.0,1767084828.904
2072161.0,1767084828.946
2073239.0,1767084828.984
2074467.0,1767084829.024
2075422.0,1767084829.065
2073833.0,1767084829.102
2072092.0,1767084829.143
2070454.0,1767084829.183
2070357.0,1767084829.223
2070219.0,1767084829.263
2070757.0,1767084829.304
2070784.0,1767084829.344
2070701.0,1767084829.383
2071001.0,1767084829.424
2071546.0,1767084829.463
2072176.0,1767084829.504
2073596.0,1767084829.545
2076419.0,1767084829.624
2074742.0,1767084829.584
2077499.0,1767084829.665
2079168.0,1767084829.704
2080310.0,1767084829.745
2081787.0,1767084829.785
2083642.0,1767084829.824
2084785.0,1767084829.864
2084941.0,1767084829.905
2083456.0,1767084829.945
2082784.0,1767084829.984
2082439.0,1767084830.026
2082793.0,1767084830.065
2083310.0,1767084830.105
2083934.0,1767084830.146
2084178.0,1767084830.185
2084741.0,1767084830.225
2085285.0,1767084830.266
2086382.0,1767084830.305
2087264.0,1767084830.346
2088913.0,1767084830.386
2089819.0,1767084830.422
2091547.0,1767084830.463
2092553.0,1767084830.504
2094208.0,1767084830.544
2095885.0,1767084830.583
2097053.0,1767084830.625
2099035.0,1767084830.664
2100126.0,1767084830.704
2100036.0,1767084830.746
2099219.0,1767084830.785
2098843.0,1767084830.823
2099183.0,1767084830.864
2099543.0,1767084830.903
2100363.0,1767084830.944
2101404.0,1767084830.984
2102235.0,1767084831.023
2102669.0,1767084831.063
2103765.0,1767084831.104
2104728.0,1767084831.144
2105897.0,1767084831.183
2107456.0,1767084831.224
2108771.0,1767084831.264
2109658.0,1767084831.304
2111302.0,1767084831.345
2112649.0,1767084831.384
2113984.0,1767084831.424
2115664.0,1767084831.465
2117197.0,1767084831.504
2118492.0,1767084831.545
2117736.0,1767084831.585
2117724.0,1767084831.624
2117697.0,1767084831.665
2118772.0,1767084831.706
2119416.0,1767084831.746
2120366.0,1767084831.783
2121523.0,1767084831.824
2121933.0,1767084831.864
2122851.0,1767084831.904
2124134.0,1767084831.946
2125060.0,1767084831.984
2126810.0,1767084832.025
2127734.0,1767084832.066
2129080.0,1767084832.103
2130893.0,1767084832.144
2132013.0,1767084832.184
2133761.0,1767084832.223
2134851.0,1767084832.263
2136397.0,1767084832.304
2136182.0,1767084832.344
2136408.0,1767084832.383
2136432.0,1767084832.424
2137206.0,1767084832.464
2138290.0,1767084832.504
2138857.0,1767084832.545
2140264.0,1767084832.584
2140811.0,1767084832.624
2141773.0,1767084832.665
2142439.0,1767084832.704
2143771.0,1767084832.745
2144773.0,1767084832.785
2146343.0,1767084832.824
2147422.0,1767084832.865
2148930.0,1767084832.906
2149784.0,1767084832.946
2151420.0,1767084832.985
2151577.0,1767084833.027
2151594.0,1767084833.064
2151033.0,1767084833.104
2151188.0,1767084833.146
2151857.0,1767084833.184
2152210.0,1767084833.225
2152966.0,1767084833.266
2153622.0,1767084833.303
2154153.0,1767084833.336
2154801.0,1767084833.419
2155551.0,1767084833.458
2156777.0,1767084833.498
2157641.0,1767084833.539
2158700.0,1767084833.579
2159569.0,1767084833.618
2160656.0,1767084833.659
2162162.0,1767084833.698
2159861.0,1767084833.819
2161643.0,1767084833.738
2159462.0,1767084833.859
2160607.0,1767084833.78
2159773.0,1767084833.9
2159708.0,1767084833.939
2160420.0,1767084833.98
2160557.0,1767084834.02
2160466.0,1767084834.06
2160911.0,1767084834.096
2161185.0,1767084834.137
2161880.0,1767084834.17
2162717.0,1767084834.209
2163234.0,1767084834.248
2164377.0,1767084834.288
2164920.0,1767084834.328
2164813.0,1767084834.37
2163964.0,1767084834.408
2161970.0,1767084834.449
2160872.0,1767084834.49
2160072.0,1767084834.529
2159672.0,1767084834.569
2159504.0,1767084834.608
2159450.0,1767084834.647
2158601.0,1767084834.687
2158536.0,1767084834.728
2158341.0,1767084834.768
2158291.0,1767084834.807
2158999.0,1767084834.848
2158908.0,1767084834.887
2159692.0,1767084834.927
2160028.0,1767084834.969
2160495.0,1767084835.007
2160968.0,1767084835.047
2159279.0,1767084835.089
2156463.0,1767084835.128
2154387.0,1767084835.168
2152911.0,1767084835.209
2151585.0,1767084835.248
2151265.0,1767084835.288
2150294.0,1767084835.33
2149713.0,1767084835.37
2148861.0,1767084835.409
2147793.0,1767084835.451
2147838.0,1767084835.49
2147464.0,1767084835.528
2147571.0,1767084835.57
2147519.0,1767084835.609
2147698.0,1767084835.649
2147719.0,1767084835.69
2148366.0,1767084835.729
2148225.0,1767084835.77
2146324.0,1767084835.81
2146324.0,1767084835.844
2142881.0,1767084835.884
2140253.0,1767084835.925
2138219.0,1767084835.965
2136700.0,1767084836.004
2135039.0,1767084836.045
2134345.0,1767084836.085
2132768.0,1767084836.125
2131354.0,1767084836.166
2130342.0,1767084836.205
2129899.0,1767084836.245
2129292.0,1767084836.286
2129290.0,1767084836.325
2128804.0,1767084836.366
2128701.0,1767084836.406
2128492.0,1767084836.445
2128758.0,1767084836.486
2128617.0,1767084836.528
2127710.0,1767084836.568
2124411.0,1767084836.608
2120665.0,1767084836.649
2118007.0,1767084836.688
2116264.0,1767084836.728
2114303.0,1767084836.771
2111345.0,1767084836.849
2113048.0,1767084836.809
2109504.0,1767084836.891
2108512.0,1767084836.93
2107047.0,1767084836.971
2106654.0,1767084837.012
2105612.0,1767084837.046
2105395.0,1767084837.086
2105221.0,1767084837.127
2105035.0,1767084837.167
2104830.0,1767084837.206
2104581.0,1767084837.247
2104019.0,1767084837.286
2100771.0,1767084837.326
2096875.0,1767084837.368
2094158.0,1767084837.407
2092209.0,1767084837.447
2090716.0,1767084837.488
2089273.0,1767084837.527
2087817.0,1767084837.568
2086585.0,1767084837.608
2085259.0,1767084837.647
2084314.0,1767084837.687
2083822.0,1767084837.728
2083276.0,1767084837.769
2083575.0,1767084837.809
2083233.0,1767084837.85
2083320.0,1767084837.889
2083475.0,1767084837.929
2084257.0,1767084837.971
2083350.0,1767084838.01
2080756.0,1767084838.05
2077445.0,1767084838.09
2075416.0,1767084838.13
2073972.0,1767084838.17
2072919.0,1767084838.211
2072387.0,1767084838.25
2071427.0,1767084838.29
2070417.0,1767084838.331
2069618.0,1767084838.37
2069571.0,1767084838.41
2069589.0,1767084838.451
2069470.0,1767084838.49
2069887.0,1767084838.53
2070253.0,1767084838.572
2070961.0,1767084838.61
2071617.0,1767084838.65
2072468.0,1767084838.692
2070377.0,1767084838.731
2067579.0,1767084838.771
2065403.0,1767084838.812
2064570.0,1767084838.851
2063709.0,1767084838.891
2063630.0,1767084838.932
2063219.0,1767084838.973
2062737.0,1767084839.01
2062362.0,1767084839.051
2062225.0,1767084839.09
2062757.0,1767084839.13
2062822.0,1767084839.173
2063715.0,1767084839.211
2064174.0,1767084839.251
2065539.0,1767084839.293
2065916.0,1767084839.33
2065716.0,1767084839.371
2062790.0,1767084839.412
2060495.0,1767084839.451
2059264.0,1767084839.49
2058295.0,1767084839.523
2058113.0,1767084839.563
2058009.0,1767084839.602
2057316.0,1767084839.643
2056928.0,1767084839.682
2056697.0,1767084839.722
2057534.0,1767084839.764
2057745.0,1767084839.803
2058468.0,1767084839.843
2059558.0,1767084839.884
2059928.0,1767084839.923
2061147.0,1767084839.964
2061367.0,1767084840.004
2059317.0,1767084840.043
2056948.0,1767084840.083
2054853.0,1767084840.124
2053530.0,1767084840.164
2053024.0,1767084840.201
2052554.0,1767084840.242
2052456.0,1767084840.281
2052164.0,1767084840.322
2051565.0,1767084840.357
2052049.0,1767084840.392
2052046.0,1767084840.429
2052822.0,1767084840.471
2053234.0,1767084840.51
2054252.0,1767084840.551
2055288.0,1767084840.591
2056072.0,1767084840.631
2057053.0,1767084840.671
2055000.0,1767084840.712
2052586.0,1767084840.752
2050394.0,1767084840.791
2049105.0,1767084840.832
2048675.0,1767084840.871
2048427.0,1767084840.912
2048108.0,1767084840.953
2047414.0,1767084840.992
2047382.0,1767084841.032
2047237.0,1767084841.073
2047948.0,1767084841.112
2048425.0,1767084841.153
2049438.0,1767084841.193
2049754.0,1767084841.232
2050911.0,1767084841.272
2051813.0,1767084841.313
2052971.0,1767084841.353
2054280.0,1767084841.392
2053583.0,1767084841.431
2051519.0,1767084841.47
2049060.0,1767084841.51
2047825.0,1767084841.552
2046910.0,1767084841.591
2046707.0,1767084841.631
2046590.0,1767084841.673
2046853.0,1767084841.712
2046401.0,1767084841.753
2046549.0,1767084841.791
2046665.0,1767084841.83
2047594.0,1767084841.864
2048491.0,1767084841.906
2049167.0,1767084841.945
2049945.0,1767084841.985
2051092.0,1767084842.026
2052079.0,1767084842.065
2053101.0,1767084842.105
2054787.0,1767084842.147
2055654.0,1767084842.185
2054465.0,1767084842.225
2052228.0,1767084842.266
2050636.0,1767084842.306
2049945.0,1767084842.346
2049529.0,1767084842.387
2049726.0,1767084842.426
2049945.0,1767084842.466
2050204.0,1767084842.507
2049969.0,1767084842.548
2050410.0,1767084842.585
2051030.0,1767084842.623
2052374.0,1767084842.654
2053105.0,1767084842.69
2054361.0,1767084842.732
2055276.0,1767084842.771
2056471.0,1767084842.811
2057720.0,1767084842.852
2059416.0,1767084842.891
2060345.0,1767084842.932
2059813.0,1767084842.973
2058066.0,1767084843.012
2057163.0,1767084843.052
2057098.0,1767084843.087
2057098.0,1767084843.127
2056924.0,1767084843.166
2057604.0,1767084843.207
2058167.0,1767084843.246
2058580.0,1767084843.287
2058795.0,1767084843.328
2059748.0,1767084843.367
2060419.0,1767084843.407
2061812.0,1767084843.448
2062924.0,1767084843.487
2063680.0,1767084843.528
2065500.0,1767084843.568
2066320.0,1767084843.607
2068012.0,1767084843.648
2069236.0,1767084843.689
2069414.0,1767084843.728
2067702.0,1767084843.766
2067305.0,1767084843.803
2066946.0,1767084843.835
2067485.0,1767084843.874
2067969.0,1767084843.916
2069086.0,1767084843.951
2069983.0,1767084843.991
2070635.0,1767084844.033
2072172.0,1767084844.072
2072944.0,1767084844.113
2074683.0,1767084844.154
2075825.0,1767084844.193
2077704.0,1767084844.233
2078714.0,1767084844.272
2080479.0,1767084844.312
2081918.0,1767084844.348
2082503.0,1767084844.389
2081137.0,1767084844.428
2080511.0,1767084844.468
2079955.0,1767084844.51
2080218.0,1767084844.548
2080672.0,1767084844.588
2081408.0,1767084844.629
2081631.0,1767084844.668
2082059.0,1767084844.709
2083031.0,1767084844.75
2083974.0,1767084844.789
2085130.0,1767084844.829
2086421.0,1767084844.87
2087383.0,1767084844.91
2088419.0,1767084844.949
2090498.0,1767084844.99
2091419.0,1767084845.03
2092808.0,1767084845.07
2091458.0,1767084845.112
2090078.0,1767084845.152
2088972.0,1767084845.196
2088899.0,1767084845.237
2089108.0,1767084845.271
2089322.0,1767084845.312
2089698.0,1767084845.357
2090231.0,1767084845.396
2090748.0,1767084845.436
2090993.0,1767084845.478
2092169.0,1767084845.517
2093071.0,1767084845.557
2094246.0,1767084845.598
2095339.0,1767084845.637
2096154.0,1767084845.677
2097988.0,1767084845.719
2099087.0,1767084845.757
2099471.0,1767084845.797
2097765.0,1767084845.838
2096038.0,1767084845.877
2094921.0,1767084845.918
2094909.0,1767084845.958
2094639.0,1767084845.997
2095139.0,1767084846.038
2095349.0,1767084846.079
2094992.0,1767084846.118
2095312.0,1767084846.158
2095751.0,1767084846.199
2096348.0,1767084846.238
2097651.0,1767084846.279
2097927.0,1767084846.321
2098999.0,1767084846.359
2099979.0,1767084846.399
2101299.0,1767084846.438
2102124.0,1767084846.478
2103094.0,1767084846.519
2101983.0,1767084846.559
2099916.0,1767084846.598
2098817.0,1767084846.639
2097547.0,1767084846.678
2097506.0,1767084846.718
2097599.0,1767084846.757
2097384.0,1767084846.798
2097045.0,1767084846.837
2097049.0,1767084846.877
2097178.0,1767084846.919
2097237.0,1767084846.957
2097489.0,1767084846.997
2098461.0,1767084847.039
2099388.0,1767084847.078
2099886.0,1767084847.118
2100923.0,1767084847.159
2101260.0,1767084847.198
2102590.0,1767084847.238
2103215.0,1767084847.279
2102762.0,1767084847.319
2100193.0,1767084847.358
2098182.0,1767084847.399
2097118.0,1767084847.439
2096167.0,1767084847.479
2096283.0,1767084847.521
2095583.0,1767084847.559
2095806.0,1767084847.6
2094775.0,1767084847.641
2094602.0,1767084847.678
2094644.0,1767084847.719
2095316.0,1767084847.76
2095751.0,1767084847.799
2096143.0,1767084847.839
2096592.0,1767084847.88
2097805.0,1767084847.916
2097981.0,1767084847.955
2099798.0,1767084848.035
2099083.0,1767084847.996
2099467.0,1767084848.075
2097131.0,1767084848.117
2095246.0,1767084848.156
2093840.0,1767084848.196
2092913.0,1767084848.237
2092771.0,1767084848.276
2091994.0,1767084848.317
2091666.0,1767084848.357
2090963.0,1767084848.396
2090346.0,1767084848.436
2090606.0,1767084848.477
2091084.0,1767084848.517
2091034.0,1767084848.557
2091933.0,1767084848.598
2092641.0,1767084848.637
2092580.0,1767084848.677
2093394.0,1767084848.719
2094172.0,1767084848.757
2095365.0,1767084848.797
2095310.0,1767084848.838
2093248.0,1767084848.877
2091083.0,1767084848.918
2089484.0,1767084848.958
2088833.0,1767084848.997
2088378.0,1767084849.038
2088054.0,1767084849.079
2087907.0,1767084849.118
2087312.0,1767084849.158
2087092.0,1767084849.199
2087301.0,1767084849.238
2087821.0,1767084849.278
2088133.0,1767084849.32
2088776.0,1767084849.358
2089274.0,1767084849.398
2090026.0,1767084849.439
2090925.0,1767084849.478
2091624.0,1767084849.519
2092313.0,1767084849.559
2091052.0,1767084849.598
2088907.0,1767084849.638
2087766.0,1767084849.68
2086736.0,1767084849.719
2086885.0,1767084849.759
2087081.0,1767084849.8
2087001.0,1767084849.839
2086517.0,1767084849.879
2086334.0,1767084849.921
2086243.0,1767084849.96
2087147.0,1767084850.0
2087394.0,1767084850.041
2087783.0,1767084850.081
2089034.0,1767084850.122
2089731.0,1767084850.162
2090044.0,1767084850.201
2090181.0,1767084850.239
2088006.0,1767084850.281
2086520.0,1767084850.323
2085200.0,1767084850.362
2084503.0,1767084850.403
2084486.0,1767084850.443
2084747.0,1767084850.483
2084092.0,1767084850.524
2083964.0,1767084850.563
2083403.0,1767084850.603
2083992.0,1767084850.644
2083973.0,1767084850.683
2084521.0,1767084850.724
2085048.0,1767084850.764
2085996.0,1767084850.803
2086421.0,1767084850.843
2086952.0,1767084850.885
2084118.0,1767084850.924
2081838.0,1767084850.964
2079749.0,1767084851.005
2078580.0,1767084851.044
2077918.0,1767084851.082
2077473.0,1767084851.122
2077345.0,1767084851.16
2075956.0,1767084851.2
2076026.0,1767084851.242
2075101.0,1767084851.281
2075341.0,1767084851.322
2076172.0,1767084851.362
2076427.0,1767084851.399
2077448.0,1767084851.432
2078084.0,1767084851.473
2078206.0,1767084851.513
2076247.0,1767084851.552
2073124.0,1767084851.593
2071036.0,1767084851.632
2069342.0,1767084851.673
2068084.0,1767084851.714
2067819.0,1767084851.753
2066762.0,1767084851.793
2065645.0,1767084851.834
2064503.0,1767084851.873
2063963.0,1767084851.914
2063172.0,1767084851.954
2063119.0,1767084851.993
2063093.0,1767084852.033
2063148.0,1767084852.074
2063430.0,1767084852.111
2063996.0,1767084852.142
2062378.0,1767084852.183
2058717.0,1767084852.222
2055486.0,1767084852.263
2052708.0,1767084852.305
2051404.0,1767084852.343
2049616.0,1767084852.381
2048841.0,1767084852.423
2047886.0,1767084852.462
2046015.0,1767084852.503
2045150.0,1767084852.544
2044753.0,1767084852.583
2044573.0,1767084852.623
2044797.0,1767084852.664
2044633.0,1767084852.703
2044633.0,1767084852.737
2044957.0,1767084852.779
2045125.0,1767084852.818
2045285.0,1767084852.858
2045707.0,1767084852.9
2043553.0,1767084852.938
2039697.0,1767084852.978
2036334.0,1767084853.019
2033856.0,1767084853.058
2031588.0,1767084853.099
2030514.0,1767084853.14
2029628.0,1767084853.179
2027883.0,1767084853.219
2026659.0,1767084853.26
2025849.0,1767084853.3
2025224.0,1767084853.339
2024847.0,1767084853.38
2025049.0,1767084853.42
2024831.0,1767084853.46
2025472.0,1767084853.503
2025537.0,1767084853.541
2025903.0,1767084853.582
2026052.0,1767084853.623
2026876.0,1767084853.662
2028011.0,1767084853.703
2027558.0,1767084853.744
2024515.0,1767084853.783
2020575.0,1767084853.823
2018519.0,1767084853.865
2016489.0,1767084853.904
2015108.0,1767084853.943
2014449.0,1767084853.982
2013613.0,1767084854.021
2012256.0,1767084854.061
2011411.0,1767084854.103
2011224.0,1767084854.141
2011022.0,1767084854.181
2011489.0,1767084854.222
2011547.0,1767084854.262
2012143.0,1767084854.302
2012980.0,1767084854.343
2013530.0,1767084854.382
2014295.0,1767084854.422
2014995.0,1767084854.463
2016852.0,1767084854.503
2017541.0,1767084854.542
2016228.0,1767084854.583
2013825.0,1767084854.623
2011434.0,1767084854.663
2010531.0,1767084854.705
2009844.0,1767084854.744
2009779.0,1767084854.784
2009763.0,1767084854.825
2008900.0,1767084854.865
2008749.0,1767084854.903
2009032.0,1767084854.944
2009177.0,1767084854.983
2009991.0,1767084855.023
2011050.0,1767084855.065
2011667.0,1767084855.105
2012896.0,1767084855.144
2013623.0,1767084855.182
2014938.0,1767084855.221
2016478.0,1767084855.261
2017398.0,1767084855.303
2016838.0,1767084855.341
2014604.0,1767084855.381
2012986.0,1767084855.422
2012292.0,1767084855.461
2011872.0,1767084855.502
2012293.0,1767084855.542
2012335.0,1767084855.582
2012594.0,1767084855.622
2012829.0,1767084855.663
2012769.0,1767084855.702
2014032.0,1767084855.742
2014911.0,1767084855.783
2016095.0,1767084855.822
2017320.0,1767084855.862
2018823.0,1767084855.905
2019903.0,1767084855.943
2021352.0,1767084855.983
2023054.0,1767084856.025
2024813.0,1767084856.064
2024273.0,1767084856.105
2022585.0,1767084856.146
2020820.0,1767084856.185
2020247.0,1767084856.225
2020348.0,1767084856.267
2020106.0,1767084856.304
2020596.0,1767084856.344
2021131.0,1767084856.384
2021100.0,1767084856.423
2022033.0,1767084856.463
2022662.0,1767084856.505
2023931.0,1767084856.543
2024894.0,1767084856.584
2026083.0,1767084856.625
2027607.0,1767084856.664
2029497.0,1767084856.704
2031176.0,1767084856.745
2032482.0,1767084856.784
2033631.0,1767084856.824
2035658.0,1767084856.865
2035678.0,1767084856.905
2033876.0,1767084856.944
2032418.0,1767084856.985
2032002.0,1767084857.025
2031849.0,1767084857.064
2032127.0,1767084857.107
2032471.0,1767084857.146
2032704.0,1767084857.184
2033196.0,1767084857.225
2034162.0,1767084857.265
2035146.0,1767084857.305
2036095.0,1767084857.345
2037283.0,1767084857.384
2039052.0,1767084857.424
2040258.0,1767084857.465
2042134.0,1767084857.505
2043798.0,1767084857.545
2045722.0,1767084857.586
2047561.0,1767084857.625
2049032.0,1767084857.665
2050806.0,1767084857.707
2049755.0,1767084857.745
2048467.0,1767084857.785
2048067.0,1767084857.826
2048098.0,1767084857.865
2048745.0,1767084857.906
2049343.0,1767084857.946
2050313.0,1767084857.985
2050578.0,1767084858.025
2050927.0,1767084858.066
2052164.0,1767084858.106
2053195.0,1767084858.146
2054255.0,1767084858.187
2055356.0,1767084858.226
2056849.0,1767084858.266
2058654.0,1767084858.309
2059874.0,1767084858.347
2061498.0,1767084858.387
2062701.0,1767084858.428
2062586.0,1767084858.467
2061180.0,1767084858.508
2060052.0,1767084858.549
2059615.0,1767084858.588
2059653.0,1767084858.628
2060512.0,1767084858.669
2060926.0,1767084858.709
2061185.0,1767084858.749
2061577.0,1767084858.79
2062239.0,1767084858.829
2062995.0,1767084858.864
2063947.0,1767084858.906
2065407.0,1767084858.945
2066475.0,1767084858.985
2067603.0,1767084859.026
2068873.0,1767084859.065
2070469.0,1767084859.106
2071276.0,1767084859.146
2070385.0,1767084859.185
2068604.0,1767084859.225
2067161.0,1767084859.267
2066293.0,1767084859.306
2065748.0,1767084859.346
2066218.0,1767084859.387
2066166.0,1767084859.426
2066404.0,1767084859.466
2065912.0,1767084859.508
2066225.0,1767084859.546
2067067.0,1767084859.587
2067634.0,1767084859.629
2068588.0,1767084859.668
2069705.0,1767084859.709
2070583.0,1767084859.75
2071565.0,1767084859.789
2073213.0,1767084859.829
2074311.0,1767084859.87
2073738.0,1767084859.91
2068397.0,1767084860.03
2067639.0,1767084860.103
2071711.0,1767084859.95
2069659.0,1767084859.991
2067713.0,1767084860.142
2067934.0,1767084860.068
2066954.0,1767084860.223
2067791.0,1767084860.182
2067342.0,1767084860.262
2067639.0,1767084860.303
2068530.0,1767084860.343
2068694.0,1767084860.382
2069342.0,1767084860.422
2070091.0,1767084860.464
2071071.0,1767084860.503
2071872.0,1767084860.543
2072017.0,1767084860.584
2069599.0,1767084860.623
2066176.0,1767084860.663
2064093.0,1767084860.705
2062176.0,1767084860.743
2061238.0,1767084860.783
2060031.0,1767084860.822
2059203.0,1767084860.856
2058506.0,1767084860.891
2057513.0,1767084860.929
2057415.0,1767084860.968
2057219.0,1767084861.008
2058058.0,1767084861.05
2058497.0,1767084861.089
2060153.0,1767084861.129
2062585.0,1767084861.17
2065685.0,1767084861.21
2069791.0,1767084861.248
2072327.0,1767084861.29
2073632.0,1767084861.322
2075488.0,1767084861.362
2078238.0,1767084861.403
2081540.0,1767084861.442
2084099.0,1767084861.483
2084016.0,1767084861.523
2084938.0,1767084861.562
2087895.0,1767084861.602
2092113.0,1767084861.644
2104632.0,1767084861.723
2098100.0,1767084861.683
2110162.0,1767084861.764
2115776.0,1767084861.803
2120535.0,1767084861.843
2124979.0,1767084861.885
2129482.0,1767084861.923
2131679.0,1767084861.963
2133986.0,1767084862.006
2136324.0,1767084862.043
2139296.0,1767084862.079
2141931.0,1767084862.111
2144020.0,1767084862.15
2145449.0,1767084862.19
2145920.0,1767084862.231
2145111.0,1767084862.271
2144363.0,1767084862.311
2144608.0,1767084862.352
2145747.0,1767084862.391
2147130.0,1767084862.43
2149227.0,1767084862.472
2151420.0,1767084862.51
2153001.0,1767084862.551
2153264.0,1767084862.592
2151371.0,1767084862.631
2150911.0,1767084862.671
2151050.0,1767084862.712
2151747.0,1767084862.751
2152469.0,1767084862.791
2153127.0,1767084862.832
2152822.0,1767084862.872
2152413.0,1767084862.911
2152369.0,1767084862.952
2152932.0,1767084862.991
2152372.0,1767084863.032
2153055.0,1767084863.073
2152801.0,1767084863.112
2152699.0,1767084863.152
2150000.0,1767084863.193
2145564.0,1767084863.233
2141512.0,1767084863.274
2138437.0,1767084863.313
2135442.0,1767084863.35
2133510.0,1767084863.39
2131603.0,1767084863.432
2129837.0,1767084863.472
2127507.0,1767084863.511
2125528.0,1767084863.553
2123686.0,1767084863.591
2123686.0,1767084863.627
2123142.0,1767084863.669
2122750.0,1767084863.707
2122369.0,1767084863.747
2122365.0,1767084863.788
2121713.0,1767084863.827
2119281.0,1767084863.868
2116894.0,1767084863.909
2115756.0,1767084863.948
2115020.0,1767084863.988
2115464.0,1767084864.029
2115736.0,1767084864.069
2116928.0,1767084864.108
2117252.0,1767084864.149
2120406.0,1767084864.228
2118604.0,1767084864.188
2122914.0,1767084864.27
2125124.0,1767084864.309
2128313.0,1767084864.35
2130516.0,1767084864.391
2132790.0,1767084864.434
2134133.0,1767084864.472
2134399.0,1767084864.512
2134861.0,1767084864.551
2136343.0,1767084864.591
2139412.0,1767084864.633
2142030.0,1767084864.673
2143165.0,1767084864.704
2142571.0,1767084864.745
2141420.0,1767084864.784
2140599.0,1767084864.824
2139918.0,1767084864.866
2139088.0,1767084864.904
2138545.0,1767084864.944
2138768.0,1767084864.985
2138939.0,1767084865.025
2139505.0,1767084865.065
2139050.0,1767084865.106
2137541.0,1767084865.145
2134978.0,1767084865.185
2133907.0,1767084865.226
2132532.0,1767084865.266
2131790.0,1767084865.305
2129205.0,1767084865.346
2126895.0,1767084865.386
2124697.0,1767084865.425
2123944.0,1767084865.463
2123464.0,1767084865.494
2123687.0,1767084865.533
2123995.0,1767084865.574
2124410.0,1767084865.61
2126571.0,1767084865.651
2127738.0,1767084865.692
2128674.0,1767084865.731
2127684.0,1767084865.771
2125975.0,1767084865.812
2124622.0,1767084865.852
2125003.0,1767084865.891
2125087.0,1767084865.933
2126194.0,1767084865.973
2126428.0,1767084866.013
2127525.0,1767084866.054
2129287.0,1767084866.093
2131524.0,1767084866.133
2135002.0,1767084866.174
2139585.0,1767084866.213
2144232.0,1767084866.254
2149929.0,1767084866.294
2154723.0,1767084866.333
2158504.0,1767084866.373
2160509.0,1767084866.415
2162395.0,1767084866.454
2163158.0,1767084866.494
2161166.0,1767084866.535
2162425.0,1767084866.574
2166095.0,1767084866.614
2170655.0,1767084866.655
2177307.0,1767084866.691
2184893.0,1767084866.731
2192351.0,1767084866.772
2198386.0,1767084866.812
2204805.0,1767084866.852
2211371.0,1767084866.893
2215832.0,1767084866.932
2219267.0,1767084866.973
2222003.0,1767084867.014
2225306.0,1767084867.052
2229086.0,1767084867.091
2232883.0,1767084867.132
2234045.0,1767084867.166
2233940.0,1767084867.206
2233386.0,1767084867.248
2232298.0,1767084867.286
2231485.0,1767084867.326
2230715.0,1767084867.367
2230536.0,1767084867.406
2230649.0,1767084867.447
2230414.0,1767084867.488
2229915.0,1767084867.527
2227852.0,1767084867.567
2224420.0,1767084867.608
2220880.0,1767084867.648
2220823.0,1767084867.687
2220906.0,1767084867.728
2220394.0,1767084867.767
2218296.0,1767084867.807
2215709.0,1767084867.849
2210850.0,1767084867.888
2205188.0,1767084867.928
2200375.0,1767084867.969
2196018.0,1767084868.008
2192605.0,1767084868.049
2190471.0,1767084868.089
2188006.0,1767084868.128
2185528.0,1767084868.168
2183792.0,1767084868.203
2182648.0,1767084868.235
2183166.0,1767084868.273
2184565.0,1767084868.314
2184154.0,1767084868.353
2184398.0,1767084868.392
2185069.0,1767084868.434
2185619.0,1767084868.472
2185155.0,1767084868.512
2185559.0,1767084868.554
2185768.0,1767084868.593
2187083.0,1767084868.633
2188798.0,1767084868.674
2190491.0,1767084868.713
2190705.0,1767084868.753
2190057.0,1767084868.794
2188811.0,1767084868.834
2188920.0,1767084868.873
2189612.0,1767084868.914
2190611.0,1767084868.953
2191403.0,1767084868.993
2192584.0,1767084869.035
2192512.0,1767084869.074
2193231.0,1767084869.114
2193816.0,1767084869.156
2194074.0,1767084869.195
2194699.0,1767084869.234
2195383.0,1767084869.273
2195711.0,1767084869.312
2194542.0,1767084869.351
2193085.0,1767084869.39
2189967.0,1767084869.468
2188474.0,1767084869.507
2188544.0,1767084869.546
2191597.0,1767084869.429
2187985.0,1767084869.585
2186968.0,1767084869.624
2186242.0,1767084869.663
2184889.0,1767084869.702
2184874.0,1767084869.741
2184101.0,1767084869.78
2184068.0,1767084869.819
2183729.0,1767084869.858
2183216.0,1767084869.897
2182968.0,1767084869.936
2181285.0,1767084869.975
2178770.0,1767084870.014
2176120.0,1767084870.053
2173858.0,1767084870.092
2171978.0,1767084870.131
2171061.0,1767084870.17
2169492.0,1767084870.209
2168369.0,1767084870.248
2166843.0,1767084870.287
2165204.0,1767084870.326
2163745.0,1767084870.404
2164489.0,1767084870.365
2162834.0,1767084870.443
2162185.0,1767084870.482
2161415.0,1767084870.521
2160981.0,1767084870.56
2160893.0,1767084870.599
2159077.0,1767084870.638
2156572.0,1767084870.677
2153855.0,1767084870.716
2150234.0,1767084870.794
2148698.0,1767084870.833
2146888.0,1767084870.872
2144324.0,1767084870.911
2144324.0,1767084870.95
2151817.0,1767084870.755
2142666.0,1767084870.989
2141748.0,1767084871.028
2140679.0,1767084871.067
2139838.0,1767084871.106
2139070.0,1767084871.145
2138737.0,1767084871.184
2137847.0,1767084871.262
2137980.0,1767084871.223
2136779.0,1767084871.301
2131554.0,1767084871.379
2127315.0,1767084871.457
2125652.0,1767084871.496
2124902.0,1767084871.535
2134852.0,1767084871.34
2123007.0,1767084871.574
2129613.0,1767084871.418
2121698.0,1767084871.613
2120044.0,1767084871.652
2118056.0,1767084871.73
2117163.0,1767084871.769
2118764.0,1767084871.691
2115494.0,1767084871.847
2114499.0,1767084871.925
2112309.0,1767084871.964
2109708.0,1767084872.003
2115098.0,1767084871.886
2116284.0,1767084871.808
2107587.0,1767084872.042
2104604.0,1767084872.12
2103851.0,1767084872.198
2105983.0,1767084872.081
2104154.0,1767084872.159
2102705.0,1767084872.237
2101919.0,1767084872.276
2101385.0,1767084872.315
2101403.0,1767084872.354
2101473.0,1767084872.393
2101437.0,1767084872.432
2101643.0,1767084872.471
2101759.0,1767084872.51
2102392.0,1767084872.549
2100399.0,1767084872.588
2098428.0,1767084872.627
2096861.0,1767084872.666
2095847.0,1767084872.705
2094534.0,1767084872.744
2094512.0,1767084872.783
2093929.0,1767084872.822
2093094.0,1767084872.861
2092594.0,1767084872.9
2092358.0,1767084872.939
2092488.0,1767084872.978
2092280.0,1767084873.017
2092889.0,1767084873.056
2092751.0,1767084873.095
2093399.0,1767084873.134
2093069.0,1767084873.173
2091607.0,1767084873.212
2089712.0,1767084873.252
2088042.0,1767084873.292
2086869.0,1767084873.332
2086633.0,1767084873.372
2086363.0,1767084873.412
2085922.0,1767084873.452
2085471.0,1767084873.492
2085172.0,1767084873.532
2085153.0,1767084873.572
2085334.0,1767084873.612
2085395.0,1767084873.652
2085827.0,1767084873.692
2086281.0,1767084873.732
2086625.0,1767084873.772
2086974.0,1767084873.812
2085170.0,1767084873.852
2083575.0,1767084873.892
2082513.0,1767084873.932
2081345.0,1767084873.972
2081142.0,1767084874.012
2080969.0,1767084874.052
2080884.0,1767084874.092
2080356.0,1767084874.132
2080401.0,1767084874.172
2080073.0,1767084874.212
2080785.0,1767084874.252
2081144.0,1767084874.292
2081348.0,1767084874.332
2081409.0,1767084874.372
2082519.0,1767084874.412
2082776.0,1767084874.452
2081364.0,1767084874.492
2079540.0,1767084874.532
2078058.0,1767084874.572
2077143.0,1767084874.612
2076549.0,1767084874.652
2075852.0,1767084874.692
2075961.0,1767084874.732
2075174.0,1767084874.772
2074894.0,1767084874.812
2074834.0,1767084874.852
2074982.0,1767084874.892
2074966.0,1767084874.932
2075283.0,1767084874.972
2075180.0,1767084875.012
2075623.0,1767084875.052
2075973.0,1767084875.092
2076253.0,1767084875.132
2075501.0,1767084875.172
2073416.0,1767084875.212
2071541.0,1767084875.252
2070162.0,1767084875.292
2069111.0,1767084875.332
2069183.0,1767084875.372
2068391.0,1767084875.412
2068184.0,1767084875.452
2067761.0,1767084875.492
2067410.0,1767084875.532
2067270.0,1767084875.572
2067784.0,1767084875.612
2067685.0,1767084875.652
2068138.0,1767084875.692
2068260.0,1767084875.732
2068994.0,1767084875.772
2069661.0,1767084875.812
2069661.0,1767084875.852
2069376.0,1767084875.892
2067855.0,1767084875.932
2065828.0,1767084875.972
2064770.0,1767084876.012
2063683.0,1767084876.052
2063314.0,1767084876.092
2063180.0,1767084876.132
2063130.0,1767084876.172
2062125.0,1767084876.212
2061905.0,1767084876.252
2062150.0,1767084876.292
2061925.0,1767084876.332
2062226.0,1767084876.372
2062339.0,1767084876.412
2062730.0,1767084876.452
2063111.0,1767084876.492
2064030.0,1767084876.532
2063959.0,1767084876.572
2063543.0,1767084876.612
2061356.0,1767084876.652
2060019.0,1767084876.692
2058673.0,1767084876.732
2058360.0,1767084876.772
2057835.0,1767084876.812
2058175.0,1767084876.852
2057448.0,1767084876.892
2056679.0,1767084876.932
2056660.0,1767084876.972
2056778.0,1767084877.012
2057083.0,1767084877.052
2056782.0,1767084877.092
2057409.0,1767084877.132
2057722.0,1767084877.172
2057937.0,1767084877.212
2057961.0,1767084877.252
2056618.0,1767084877.292
2054133.0,1767084877.332
2052638.0,1767084877.372
2051274.0,1767084877.412
2050647.0,1767084877.452
2050158.0,1767084877.492
2049116.0,1767084877.532
2047577.0,1767084877.572
2046676.0,1767084877.612
2046068.0,1767084877.652
2046435.0,1767084877.692
2047153.0,1767084877.732
2048113.0,1767084877.772
2049309.0,1767084877.812
2049689.0,1767084877.852
2050436.0,1767084877.892
2050013.0,1767084877.932
2048409.0,1767084877.972
2046475.0,1767084878.012
2044595.0,1767084878.052
2042972.0,1767084878.092
2042531.0,1767084878.132
2041829.0,1767084878.172
2041331.0,1767084878.212
2041722.0,1767084878.252
2041816.0,1767084878.292
2041717.0,1767084878.332
2042561.0,1767084878.372
2043610.0,1767084878.412
2044914.0,1767084878.452
2046708.0,1767084878.492
2048351.0,1767084878.532
2047691.0,1767084878.572
2046740.0,1767084878.612
2046385.0,1767084878.652
2046332.0,1767084878.692
2046645.0,1767084878.732
2047497.0,1767084878.772
2046803.0,1767084878.812
2046881.0,1767084878.852
2046888.0,1767084878.892
2047311.0,1767084878.932
2047842.0,1767084878.972
2048796.0,1767084879.012
2048967.0,1767084879.052
2049725.0,1767084879.092
2050166.0,1767084879.132
2049075.0,1767084879.172
2047794.0,1767084879.212
2047392.0,1767084879.252
2047116.0,1767084879.292
2047189.0,1767084879.332
2047459.0,1767084879.372
2048021.0,1767084879.412
2047643.0,1767084879.452
2047656.0,1767084879.492
2047587.0,1767084879.532
2048601.0,1767084879.572
2049449.0,1767084879.612
2050486.0,1767084879.652
2051273.0,1767084879.692
2051784.0,1767084879.732
2050871.0,1767084879.772
2049229.0,1767084879.812
2048985.0,1767084879.852
2049241.0,1767084879.892
2049004.0,1767084879.932
2049473.0,1767084879.972
2049831.0,1767084880.012
2050546.0,1767084880.052
2051252.0,1767084880.092
2051918.0,1767084880.132
2051916.0,1767084880.172
2052154.0,1767084880.212
2052771.0,1767084880.252
2053763.0,1767084880.292
2054015.0,1767084880.332
2053496.0,1767084880.372
2052311.0,1767084880.412
2051798.0,1767084880.452
2051945.0,1767084880.492
2052916.0,1767084880.532
2054630.0,1767084880.572
2055767.0,1767084880.612
2056146.0,1767084880.652
2056940.0,1767084880.692
2057353.0,1767084880.732
2057543.0,1767084880.772
2058765.0,1767084880.812
2059744.0,1767084880.852
2060940.0,1767084880.892
2062795.0,1767084880.932
2062533.0,1767084880.972
2062102.0,1767084881.012
2062185.0,1767084881.052
2061977.0,1767084881.092
2062507.0,1767084881.132
2060748.0,1767084881.168
2058118.0,1767084881.207
2055364.0,1767084881.247
2048119.0,1767084881.289
2042479.0,1767084881.328
2040402.0,1767084881.408
2041742.0,1767084881.447
2043941.0,1767084881.488
2044591.0,1767084881.529
2044734.0,1767084881.568
2043903.0,1767084881.607
2043351.0,1767084881.645
2043454.0,1767084881.684
2043588.0,1767084881.725
2044941.0,1767084881.766
2047166.0,1767084881.805
2040381.0,1767084881.367
2050594.0,1767084881.845
2056846.0,1767084881.887
2064598.0,1767084881.927
2073244.0,1767084881.966
2078268.0,1767084882.005
2081616.0,1767084882.045
2083998.0,1767084882.075
2079589.0,1767084882.196
2083911.0,1767084882.117
2077544.0,1767084882.237
2075655.0,1767084882.276
2074042.0,1767084882.317
2081707.0,1767084882.156
2072247.0,1767084882.357
2070385.0,1767084882.396
2040871.0,1767084883.068
2035508.0,1767084883.147
2048676.0,1767084882.598
2032603.0,1767084883.189
2030468.0,1767084883.226
2047610.0,1767084882.906
2026632.0,1767084883.267
2046186.0,1767084882.947
2047194.0,1767084882.637
2046878.0,1767084882.677
2045635.0,1767084882.719
2049380.0,1767084882.835
2049005.0,1767084882.868
2024257.0,1767084883.308
2020874.0,1767084883.346
2016268.0,1767084883.386
2051732.0,1767084882.557
2056821.0,1767084882.517
2038384.0,1767084883.108
2063752.0,1767084882.477
2068995.0,1767084882.436
2011452.0,1767084883.427
2009214.0,1767084883.466
2043673.0,1767084883.027
2046481.0,1767084882.758
2009773.0,1767084883.507
2045365.0,1767084882.986
2048640.0,1767084882.799
2009279.0,1767084883.587
2008084.0,1767084883.627
2007098.0,1767084883.668
2011032.0,1767084883.747
2007617.0,1767084883.707
2009603.0,1767084883.547
2026620.0,1767084883.827
2031265.0,1767084883.867
2017592.0,1767084883.788
2034831.0,1767084883.909
2036247.0,1767084883.947
2036448.0,1767084883.987
2035821.0,1767084884.029
2035271.0,1767084884.066
2035365.0,1767084884.107
2035456.0,1767084884.148
2035923.0,1767084884.187
2035823.0,1767084884.227
2036365.0,1767084884.269
2036550.0,1767084884.309
2036938.0,1767084884.348
2037557.0,1767084884.39
2038573.0,1767084884.427
2038953.0,1767084884.467
2039922.0,1767084884.508
2039922.0,1767084884.542
2041378.0,1767084884.623
2040818.0,1767084884.582
2040659.0,1767084884.662
2039991.0,1767084884.703
2040689.0,1767084884.783
2040360.0,1767084884.744
2041942.0,1767084884.864
2042448.0,1767084884.943
2041915.0,1767084884.904
2041402.0,1767084884.823
2042709.0,1767084884.985
2044639.0,1767084885.106
2043561.0,1767084885.024
2044410.0,1767084885.064
2045847.0,1767084885.144
2046983.0,1767084885.184
2048244.0,1767084885.225
2049888.0,1767084885.264
2049463.0,1767084885.346
2049119.0,1767084885.385
2049814.0,1767084885.305
2049700.0,1767084885.426
2050577.0,1767084885.468
2049865.0,1767084885.508
2049048.0,1767084885.547
2049440.0,1767084885.589
2050840.0,1767084885.628
2053589.0,1767084885.668
2056224.0,1767084885.71
2058824.0,1767084885.742
2062335.0,1767084885.782
2066393.0,1767084885.823
2071179.0,1767084885.862
2075644.0,1767084885.903
2080058.0,1767084885.943
2082648.0,1767084885.982
2084522.0,1767084886.022
2086305.0,1767084886.064
2089065.0,1767084886.103
2090428.0,1767084886.143
2091929.0,1767084886.184
2092589.0,1767084886.223
2093120.0,1767084886.263
2094195.0,1767084886.305
2095134.0,1767084886.343
2096453.0,1767084886.383
2097911.0,1767084886.425
2098957.0,1767084886.464
2099996.0,1767084886.505
2101618.0,1767084886.545
2102716.0,1767084886.584
2103512.0,1767084886.624
2102347.0,1767084886.665
2101171.0,1767084886.705
2100884.0,1767084886.744
2101104.0,1767084886.786
2102034.0,1767084886.825
2102302.0,1767084886.865
2102668.0,1767084886.907
2102706.0,1767084886.945
2103204.0,1767084886.985
2103730.0,1767084887.026
2104653.0,1767084887.065
2105721.0,1767084887.106
2106897.0,1767084887.147
2107675.0,1767084887.186
2108748.0,1767084887.226
2109568.0,1767084887.267
2108930.0,1767084887.306
2107388.0,1767084887.346
2106048.0,1767084887.387
2106200.0,1767084887.426
2106195.0,1767084887.466
2106692.0,1767084887.508
2106793.0,1767084887.546
2106832.0,1767084887.586
2106548.0,1767084887.628
2107346.0,1767084887.668
2107331.0,1767084887.709
2108040.0,1767084887.749
2108361.0,1767084887.788
2109355.0,1767084887.829
2110099.0,1767084887.87
2111051.0,1767084887.91
2111141.0,1767084887.95
2109197.0,1767084887.991
2107536.0,1767084888.03
2106291.0,1767084888.068
2105558.0,1767084888.111
2105532.0,1767084888.149
2105112.0,1767084888.188
2104958.0,1767084888.22
2104471.0,1767084888.259
2103880.0,1767084888.3
2104036.0,1767084888.34
2104212.0,1767084888.38
2104568.0,1767084888.42
2104409.0,1767084888.461
2105024.0,1767084888.501
2105475.0,1767084888.54
2105914.0,1767084888.581
2104030.0,1767084888.62
2101791.0,1767084888.66
2099669.0,1767084888.702
2098557.0,1767084888.74
2097631.0,1767084888.78
2097324.0,1767084888.822
2096920.0,1767084888.861
2095925.0,1767084888.899
2095365.0,1767084888.929
2094903.0,1767084888.968
2094299.0,1767084889.009
2094802.0,1767084889.05
2094680.0,1767084889.09
2094664.0,1767084889.13
2095201.0,1767084889.171
2095587.0,1767084889.208
2094323.0,1767084889.248
2091687.0,1767084889.29
2088868.0,1767084889.329
2086905.0,1767084889.369
2085682.0,1767084889.411
2085022.0,1767084889.448
2085794.0,1767084889.488
2085905.0,1767084889.529
2086351.0,1767084889.568
2086475.0,1767084889.608
2086844.0,1767084889.649
2088254.0,1767084889.689
2088539.0,1767084889.728
2089915.0,1767084889.769
2090861.0,1767084889.808
2091565.0,1767084889.849
2091511.0,1767084889.89
2089936.0,1767084889.929
2086673.0,1767084889.969
2084951.0,1767084890.01
2082851.0,1767084890.049
2081563.0,1767084890.09
2080359.0,1767084890.13
2078561.0,1767084890.169
2076848.0,1767084890.21
2075218.0,1767084890.251
2074253.0,1767084890.291
2073164.0,1767084890.33
2072827.0,1767084890.37
2071660.0,1767084890.409
2071499.0,1767084890.449
2071642.0,1767084890.491
2070304.0,1767084890.53
2067357.0,1767084890.57
2063690.0,1767084890.611
2060114.0,1767084890.65
2057626.0,1767084890.691
2055938.0,1767084890.731
2054428.0,1767084890.77
2052817.0,1767084890.811
2051027.0,1767084890.852
2049523.0,1767084890.892
2048274.0,1767084890.931
2047673.0,1767084890.972
2046996.0,1767084891.011
2046786.0,1767084891.051
2046109.0,1767084891.093
2045851.0,1767084891.131
2045790.0,1767084891.171
2044911.0,1767084891.213
2041682.0,1767084891.252
2038071.0,1767084891.292
2035046.0,1767084891.333
2032964.0,1767084891.372
2031800.0,1767084891.412
2030517.0,1767084891.45
2029816.0,1767084891.49
2029104.0,1767084891.53
2028557.0,1767084891.571
2028619.0,1767084891.61
2028466.0,1767084891.65
2028428.0,1767084891.692
2028393.0,1767084891.731
2028562.0,1767084891.771
2028564.0,1767084891.81
2029387.0,1767084891.849
2029659.0,1767084891.886
2028996.0,1767084891.927
2026182.0,1767084891.966
2022956.0,1767084892.006
2020150.0,1767084892.047
2018579.0,1767084892.087
2016683.0,1767084892.126
2015995.0,1767084892.167
2014822.0,1767084892.206
2013690.0,1767084892.246
2012750.0,1767084892.288
2012212.0,1767084892.327
2012315.0,1767084892.367
2011909.0,1767084892.408
2012440.0,1767084892.447
2012941.0,1767084892.528
2012710.0,1767084892.488
2013515.0,1767084892.568
2014552.0,1767084892.608
2016186.0,1767084892.69
2016640.0,1767084892.73
2015126.0,1767084892.649
2014684.0,1767084892.771
2011830.0,1767084892.809
2009529.0,1767084892.849
2007827.0,1767084892.891
2006692.0,1767084892.929
2006238.0,1767084892.97
2005799.0,1767084893.011
2005068.0,1767084893.05
2004241.0,1767084893.091
2004084.0,1767084893.132
2004560.0,1767084893.171
2004680.0,1767084893.211
2006477.0,1767084893.331
2006970.0,1767084893.372
2005613.0,1767084893.292
2008341.0,1767084893.412
2009011.0,1767084893.452
2009944.0,1767084893.493
2011662.0,1767084893.532
2005350.0,1767084893.252
2012462.0,1767084893.572
2012384.0,1767084893.613
2009890.0,1767084893.652
