bvp,time
24.58,1760267824.984375
22.55,1760267825.0
21.24,1760267825.015625
20.49,1760267825.03125
20.16,1760267825.046875
20.21,1760267825.0625
20.65,1760267825.078125
21.44,1760267825.09375
22.44,1760267825.109375
23.35,1760267825.125
23.78,1760267825.140625
23.32,1760267825.15625
21.72,1760267825.171875
18.96,1760267825.1875
15.24,1760267825.203125
10.94,1760267825.21875
6.46,1760267825.234375
2.04,1760267825.25
-2.27,1760267825.265625
-6.57,1760267825.28125
-11.04,1760267825.296875
-15.8,1760267825.3125
-20.82,1760267825.328125
-25.92,1760267825.34375
-30.84,1760267825.359375
-35.35,1760267825.375
-39.32,1760267825.390625
-42.76,1760267825.40625
-45.79,1760267825.421875
-48.62,1760267825.4375
-51.53,1760267825.453125
-54.89,1760267825.46875
-59.1,1760267825.484375
-64.42,1760267825.5
-70.78,1760267825.515625
-77.45,1760267825.53125
-83.03,1760267825.546875
-85.66,1760267825.5625
-83.61,1760267825.578125
-75.85,1760267825.59375
-62.55,1760267825.609375
-45.05,1760267825.625
-25.42,1760267825.640625
-5.89,1760267825.65625
11.67,1760267825.671875
25.9,1760267825.6875
35.83,1760267825.703125
40.78,1760267825.71875
40.42,1760267825.734375
34.93,1760267825.75
25.26,1760267825.765625
13.03,1760267825.78125
0.15,1760267825.796875
-11.7,1760267825.8125
-21.47,1760267825.828125
-28.65,1760267825.84375
-33.07,1760267825.859375
-34.54,1760267825.875
-32.81,1760267825.890625
-27.77,1760267825.90625
-19.77,1760267825.921875
-9.71,1760267825.9375
1.1,1760267825.953125
11.37,1760267825.96875
20.22,1760267825.984375
27.36,1760267826.0
33.07,1760267826.015625
38.04,1760267826.03125
43.11,1760267826.046875
48.99,1760267826.0625
56.04,1760267826.078125
64.33,1760267826.09375
73.69,1760267826.109375
84.02,1760267826.125
95.44,1760267826.140625
108.14,1760267826.15625
122.11,1760267826.171875
136.73,1760267826.1875
150.71,1760267826.203125
162.43,1760267826.21875
170.51,1760267826.234375
174.3,1760267826.25
173.95,1760267826.265625
170.04,1760267826.28125
163.06,1760267826.296875
153.1,1760267826.3125
139.85,1760267826.328125
122.93,1760267826.34375
102.09,1760267826.359375
77.28,1760267826.375
48.54,1760267826.390625
15.97,1760267826.40625
-20.06,1760267826.421875
-58.55,1760267826.4375
-97.68,1760267826.453125
-134.97,1760267826.46875
-167.84,1760267826.484375
-194.16,1760267826.5
-212.6,1760267826.515625
-222.6,1760267826.53125
-223.99,1760267826.546875
-216.79,1760267826.5625
-201.27,1760267826.578125
-178.33,1760267826.59375
-149.82,1760267826.609375
-118.54,1760267826.625
-87.79,1760267826.640625
-60.52,1760267826.65625
-38.6,1760267826.671875
-22.44,1760267826.6875
-11.2,1760267826.703125
-3.36,1760267826.71875
2.56,1760267826.734375
7.54,1760267826.75
11.95,1760267826.765625
15.72,1760267826.78125
18.64,1760267826.796875
20.64,1760267826.8125
21.97,1760267826.828125
23.04,1760267826.84375
24.32,1760267826.859375
26.07,1760267826.875
28.26,1760267826.890625
30.66,1760267826.90625
32.97,1760267826.921875
35.02,1760267826.9375
36.81,1760267826.953125
38.45,1760267826.96875
39.97,1760267826.984375
41.25,1760267827.0
42.05,1760267827.015625
42.03,1760267827.03125
41.04,1760267827.046875
39.1,1760267827.0625
36.44,1760267827.078125
33.38,1760267827.09375
30.2,1760267827.109375
27.09,1760267827.125
24.1,1760267827.140625
21.19,1760267827.15625
18.31,1760267827.171875
15.42,1760267827.1875
12.51,1760267827.203125
9.56,1760267827.21875
6.58,1760267827.234375
3.61,1760267827.25
0.67,1760267827.265625
-2.14,1760267827.28125
-4.72,1760267827.296875
-7.03,1760267827.3125
-9.07,1760267827.328125
-11.0,1760267827.34375
-13.11,1760267827.359375
-15.72,1760267827.375
-19.08,1760267827.390625
-23.22,1760267827.40625
-27.86,1760267827.421875
-32.54,1760267827.4375
-36.73,1760267827.453125
-40.09,1760267827.46875
-42.67,1760267827.484375
-44.87,1760267827.5
-47.38,1760267827.515625
-50.95,1760267827.53125
-56.08,1760267827.546875
-62.77,1760267827.5625
-70.28,1760267827.578125
-77.08,1760267827.59375
-81.16,1760267827.609375
-80.51,1760267827.625
-73.8,1760267827.640625
-60.93,1760267827.65625
-43.18,1760267827.671875
-22.87,1760267827.6875
-2.71,1760267827.703125
15.02,1760267827.71875
28.92,1760267827.734375
38.57,1760267827.75
44.36,1760267827.765625
47.06,1760267827.78125
47.52,1760267827.796875
46.54,1760267827.8125
44.78,1760267827.828125
42.76,1760267827.84375
40.83,1760267827.859375
39.16,1760267827.875
37.77,1760267827.890625
36.56,1760267827.90625
35.42,1760267827.921875
34.35,1760267827.9375
33.39,1760267827.953125
32.72,1760267827.96875
32.5,1760267827.984375
32.85,1760267828.0
33.76,1760267828.015625
35.07,1760267828.03125
36.44,1760267828.046875
37.42,1760267828.0625
37.57,1760267828.078125
36.56,1760267828.09375
34.36,1760267828.109375
31.21,1760267828.125
27.59,1760267828.140625
23.99,1760267828.15625
20.79,1760267828.171875
18.05,1760267828.1875
15.58,1760267828.203125
13.04,1760267828.21875
10.17,1760267828.234375
6.89,1760267828.25
3.38,1760267828.265625
-0.09,1760267828.28125
-3.2,1760267828.296875
-5.81,1760267828.3125
-7.93,1760267828.328125
-9.78,1760267828.34375
-11.66,1760267828.359375
-13.92,1760267828.375
-16.78,1760267828.390625
-20.27,1760267828.40625
-24.17,1760267828.421875
-28.07,1760267828.4375
-31.56,1760267828.453125
-34.39,1760267828.46875
-36.62,1760267828.484375
-38.67,1760267828.5
-41.16,1760267828.515625
-44.79,1760267828.53125
-49.94,1760267828.546875
-56.42,1760267828.5625
-63.31,1760267828.578125
-68.92,1760267828.59375
-71.26,1760267828.609375
-68.58,1760267828.625
-60.04,1760267828.640625
-46.07,1760267828.65625
-28.34,1760267828.671875
-9.27,1760267828.6875
8.72,1760267828.703125
23.8,1760267828.71875
35.08,1760267828.734375
42.49,1760267828.75
46.5,1760267828.765625
47.77,1760267828.78125
46.95,1760267828.796875
44.63,1760267828.8125
41.4,1760267828.828125
37.8,1760267828.84375
34.33,1760267828.859375
31.35,1760267828.875
29.03,1760267828.890625
27.37,1760267828.90625
26.28,1760267828.921875
25.67,1760267828.9375
25.53,1760267828.953125
25.88,1760267828.96875
26.77,1760267828.984375
28.15,1760267829.0
29.88,1760267829.015625
31.63,1760267829.03125
33.03,1760267829.046875
33.66,1760267829.0625
33.18,1760267829.078125
31.44,1760267829.09375
28.53,1760267829.109375
24.74,1760267829.125
20.55,1760267829.140625
16.46,1760267829.15625
12.86,1760267829.171875
9.9,1760267829.1875
7.52,1760267829.203125
5.47,1760267829.21875
3.45,1760267829.234375
1.15,1760267829.25
-1.57,1760267829.265625
-4.72,1760267829.28125
-8.12,1760267829.296875
-11.46,1760267829.3125
-14.42,1760267829.328125
-16.79,1760267829.34375
-18.58,1760267829.359375
-20.08,1760267829.375
-21.74,1760267829.390625
-23.98,1760267829.40625
-27.01,1760267829.421875
-30.68,1760267829.4375
-34.62,1760267829.453125
-38.34,1760267829.46875
-41.51,1760267829.484375
-44.05,1760267829.5
-46.18,1760267829.515625
-48.31,1760267829.53125
-50.97,1760267829.546875
-54.64,1760267829.5625
-59.64,1760267829.578125
-65.89,1760267829.59375
-72.67,1760267829.609375
-78.56,1760267829.625
-81.64,1760267829.640625
-79.98,1760267829.65625
-72.33,1760267829.671875
-58.68,1760267829.6875
-40.36,1760267829.703125
-19.72,1760267829.71875
0.61,1760267829.734375
18.42,1760267829.75
32.39,1760267829.765625
42.13,1760267829.78125
47.9,1760267829.796875
50.31,1760267829.8125
50.07,1760267829.828125
47.95,1760267829.84375
44.72,1760267829.859375
41.12,1760267829.875
37.78,1760267829.890625
35.07,1760267829.90625
33.07,1760267829.921875
31.65,1760267829.9375
30.6,1760267829.953125
29.8,1760267829.96875
29.26,1760267829.984375
29.1,1760267830.0
29.47,1760267830.015625
30.44,1760267830.03125
31.85,1760267830.046875
33.41,1760267830.0625
34.7,1760267830.078125
35.3,1760267830.09375
34.92,1760267830.109375
33.41,1760267830.125
30.89,1760267830.140625
27.57,1760267830.15625
23.82,1760267830.171875
19.96,1760267830.1875
16.31,1760267830.203125
13.03,1760267830.21875
10.14,1760267830.234375
7.51,1760267830.25
4.91,1760267830.265625
2.11,1760267830.28125
-1.02,1760267830.296875
-4.4,1760267830.3125
-7.78,1760267830.328125
-10.84,1760267830.34375
-13.32,1760267830.359375
-15.2,1760267830.375
-16.69,1760267830.390625
-18.16,1760267830.40625
-20.01,1760267830.421875
-22.53,1760267830.4375
-25.75,1760267830.453125
-29.47,1760267830.46875
-33.35,1760267830.484375
-37.04,1760267830.5
-40.3,1760267830.515625
-43.08,1760267830.53125
-45.56,1760267830.546875
-48.14,1760267830.5625
-51.38,1760267830.578125
-55.85,1760267830.59375
-61.91,1760267830.609375
-69.39,1760267830.625
-77.36,1760267830.640625
-84.1,1760267830.65625
-87.44,1760267830.671875
-85.39,1760267830.6875
-76.83,1760267830.703125
-61.98,1760267830.71875
-42.46,1760267830.734375
-20.8,1760267830.75
0.26,1760267830.765625
18.52,1760267830.78125
32.69,1760267830.796875
42.48,1760267830.8125
48.27,1760267830.828125
50.82,1760267830.84375
50.96,1760267830.859375
49.43,1760267830.875
46.84,1760267830.890625
43.72,1760267830.90625
40.44,1760267830.921875
37.3,1760267830.9375
34.5,1760267830.953125
32.16,1760267830.96875
30.38,1760267830.984375
29.21,1760267831.0
28.71,1760267831.015625
28.91,1760267831.03125
29.78,1760267831.046875
31.23,1760267831.0625
33.07,1760267831.078125
35.01,1760267831.09375
36.72,1760267831.109375
37.81,1760267831.125
37.94,1760267831.140625
36.91,1760267831.15625
34.64,1760267831.171875
31.32,1760267831.1875
27.34,1760267831.203125
23.19,1760267831.21875
19.31,1760267831.234375
15.95,1760267831.25
13.07,1760267831.265625
10.39,1760267831.28125
7.53,1760267831.296875
4.21,1760267831.3125
0.43,1760267831.328125
-3.59,1760267831.34375
-7.42,1760267831.359375
-10.68,1760267831.375
-13.19,1760267831.390625
-15.04,1760267831.40625
-16.59,1760267831.421875
-18.27,1760267831.4375
-20.49,1760267831.453125
-23.38,1760267831.46875
-26.85,1760267831.484375
-30.59,1760267831.5
-34.2,1760267831.515625
-37.4,1760267831.53125
-40.04,1760267831.546875
-42.26,1760267831.5625
-44.35,1760267831.578125
-46.82,1760267831.59375
-50.2,1760267831.609375
-54.88,1760267831.625
-60.91,1760267831.640625
-67.68,1760267831.65625
-73.83,1760267831.671875
-77.41,1760267831.6875
-76.42,1760267831.703125
-69.45,1760267831.71875
-56.32,1760267831.734375
-38.26,1760267831.75
-17.59,1760267831.765625
2.97,1760267831.78125
21.06,1760267831.796875
35.25,1760267831.8125
45.06,1760267831.828125
50.78,1760267831.84375
53.05,1760267831.859375
52.55,1760267831.875
49.91,1760267831.890625
45.71,1760267831.90625
40.58,1760267831.921875
35.22,1760267831.9375
30.29,1760267831.953125
26.33,1760267831.96875
23.64,1760267831.984375
22.27,1760267832.0
22.08,1760267832.015625
22.84,1760267832.03125
24.33,1760267832.046875
26.37,1760267832.0625
28.77,1760267832.078125
31.25,1760267832.09375
33.42,1760267832.109375
34.8,1760267832.125
34.99,1760267832.140625
33.8,1760267832.15625
31.34,1760267832.171875
28.0,1760267832.1875
24.28,1760267832.203125
20.58,1760267832.21875
17.05,1760267832.234375
13.59,1760267832.25
9.95,1760267832.265625
5.92,1760267832.28125
1.47,1760267832.296875
-3.21,1760267832.3125
-7.79,1760267832.328125
-11.96,1760267832.34375
-15.62,1760267832.359375
-18.87,1760267832.375
-22.04,1760267832.390625
-25.48,1760267832.40625
-29.42,1760267832.421875
-33.81,1760267832.4375
-38.36,1760267832.453125
-42.64,1760267832.46875
-46.33,1760267832.484375
-49.37,1760267832.5
-52.0,1760267832.515625
-54.74,1760267832.53125
-58.23,1760267832.546875
-63.01,1760267832.5625
-69.3,1760267832.578125
-76.8,1760267832.59375
-84.53,1760267832.609375
-90.85,1760267832.625
-93.78,1760267832.640625
-91.49,1760267832.65625
-82.96,1760267832.671875
-68.4,1760267832.6875
-49.33,1760267832.703125
-28.15,1760267832.71875
-7.42,1760267832.734375
10.86,1760267832.75
25.59,1760267832.765625
36.64,1760267832.78125
44.46,1760267832.796875
49.72,1760267832.8125
53.0,1760267832.828125
54.74,1760267832.84375
55.28,1760267832.859375
54.96,1760267832.875
54.15,1760267832.890625
53.22,1760267832.90625
52.46,1760267832.921875
52.01,1760267832.9375
51.87,1760267832.953125
51.98,1760267832.96875
52.3,1760267832.984375
52.79,1760267833.0
53.43,1760267833.015625
54.2,1760267833.03125
54.96,1760267833.046875
55.46,1760267833.0625
55.38,1760267833.078125
54.38,1760267833.09375
52.25,1760267833.109375
48.92,1760267833.125
44.58,1760267833.140625
39.57,1760267833.15625
34.34,1760267833.171875
29.31,1760267833.1875
24.73,1760267833.203125
20.61,1760267833.21875
16.72,1760267833.234375
12.74,1760267833.25
8.4,1760267833.265625
3.67,1760267833.28125
-1.2,1760267833.296875
-5.78,1760267833.3125
-9.61,1760267833.328125
-12.5,1760267833.34375
-14.59,1760267833.359375
-16.35,1760267833.375
-18.43,1760267833.390625
-21.35,1760267833.40625
-25.25,1760267833.421875
-29.88,1760267833.4375
-34.65,1760267833.453125
-38.96,1760267833.46875
-42.41,1760267833.484375
-45.03,1760267833.5
-47.21,1760267833.515625
-49.6,1760267833.53125
-52.91,1760267833.546875
-57.7,1760267833.5625
-64.12,1760267833.578125
-71.76,1760267833.59375
-79.42,1760267833.609375
-85.22,1760267833.625
-86.95,1760267833.640625
-82.75,1760267833.65625
-71.73,1760267833.671875
-54.48,1760267833.6875
-32.97,1760267833.703125
-10.0,1760267833.71875
11.54,1760267833.734375
29.48,1760267833.75
42.67,1760267833.765625
50.97,1760267833.78125
54.99,1760267833.796875
55.7,1760267833.8125
54.15,1760267833.828125
51.34,1760267833.84375
48.07,1760267833.859375
44.9,1760267833.875
42.15,1760267833.890625
39.91,1760267833.90625
38.16,1760267833.921875
36.85,1760267833.9375
36.01,1760267833.953125
35.64,1760267833.96875
35.78,1760267833.984375
36.37,1760267834.0
37.34,1760267834.015625
38.57,1760267834.03125
39.98,1760267834.046875
41.42,1760267834.0625
42.66,1760267834.078125
43.38,1760267834.09375
43.18,1760267834.109375
41.79,1760267834.125
39.09,1760267834.140625
35.29,1760267834.15625
30.8,1760267834.171875
26.18,1760267834.1875
21.91,1760267834.203125
18.3,1760267834.21875
15.33,1760267834.234375
12.79,1760267834.25
10.31,1760267834.265625
7.56,1760267834.28125
4.36,1760267834.296875
0.77,1760267834.3125
-2.95,1760267834.328125
-6.47,1760267834.34375
-9.51,1760267834.359375
-11.98,1760267834.375
-13.99,1760267834.390625
-15.85,1760267834.40625
-17.95,1760267834.421875
-20.61,1760267834.4375
-23.95,1760267834.453125
-27.86,1760267834.46875
-32.04,1760267834.484375
-36.1,1760267834.5
-39.7,1760267834.515625
-42.75,1760267834.53125
-45.38,1760267834.546875
-48.03,1760267834.5625
-51.26,1760267834.578125
-55.67,1760267834.59375
-61.63,1760267834.609375
-68.98,1760267834.625
-76.83,1760267834.640625
-83.54,1760267834.65625
-86.97,1760267834.671875
-85.12,1760267834.6875
-76.77,1760267834.703125
-62.01,1760267834.71875
-42.39,1760267834.734375
-20.44,1760267834.75
0.99,1760267834.765625
19.49,1760267834.78125
33.64,1760267834.796875
43.08,1760267834.8125
48.28,1760267834.828125
50.15,1760267834.84375
49.63,1760267834.859375
47.54,1760267834.875
44.49,1760267834.890625
40.98,1760267834.90625
37.43,1760267834.921875
34.23,1760267834.9375
31.7,1760267834.953125
30.03,1760267834.96875
29.16,1760267834.984375
28.95,1760267835.0
29.2,1760267835.015625
29.83,1760267835.03125
30.86,1760267835.046875
32.34,1760267835.0625
34.22,1760267835.078125
36.2,1760267835.09375
37.81,1760267835.109375
38.55,1760267835.125
38.06,1760267835.140625
36.27,1760267835.15625
33.41,1760267835.171875
29.93,1760267835.1875
26.28,1760267835.203125
22.79,1760267835.21875
19.61,1760267835.234375
16.65,1760267835.25
13.68,1760267835.265625
10.45,1760267835.28125
6.82,1760267835.296875
2.86,1760267835.3125
-1.13,1760267835.328125
-4.78,1760267835.34375
-7.76,1760267835.359375
-10.03,1760267835.375
-11.83,1760267835.390625
-13.64,1760267835.40625
-15.94,1760267835.421875
-19.0,1760267835.4375
-22.74,1760267835.453125
-26.78,1760267835.46875
-30.6,1760267835.484375
-33.77,1760267835.5
-36.12,1760267835.515625
-37.82,1760267835.53125
-39.33,1760267835.546875
-41.31,1760267835.5625
-44.39,1760267835.578125
-49.01,1760267835.59375
-55.12,1760267835.609375
-62.0,1760267835.625
-68.17,1760267835.640625
-71.68,1760267835.65625
-70.57,1760267835.671875
-63.57,1760267835.6875
-50.59,1760267835.703125
-32.92,1760267835.71875
-12.92,1760267835.734375
6.69,1760267835.75
23.58,1760267835.765625
36.37,1760267835.78125
44.72,1760267835.796875
49.1,1760267835.8125
50.32,1760267835.828125
49.18,1760267835.84375
46.32,1760267835.859375
42.26,1760267835.875
37.56,1760267835.890625
32.82,1760267835.90625
28.66,1760267835.921875
25.55,1760267835.9375
23.71,1760267835.953125
23.1,1760267835.96875
23.5,1760267835.984375
24.63,1760267836.0
26.23,1760267836.015625
28.07,1760267836.03125
29.93,1760267836.046875
31.59,1760267836.0625
32.87,1760267836.078125
33.59,1760267836.09375
33.67,1760267836.109375
33.01,1760267836.125
31.52,1760267836.140625
29.05,1760267836.15625
25.55,1760267836.171875
21.08,1760267836.1875
15.9,1760267836.203125
10.49,1760267836.21875
5.33,1760267836.234375
0.79,1760267836.25
-3.03,1760267836.265625
-6.33,1760267836.28125
-9.45,1760267836.296875
-12.7,1760267836.3125
-16.26,1760267836.328125
-20.03,1760267836.34375
-23.78,1760267836.359375
-27.22,1760267836.375
-30.19,1760267836.390625
-32.65,1760267836.40625
-34.7,1760267836.421875
-36.55,1760267836.4375
-38.48,1760267836.453125
-40.87,1760267836.46875
-44.17,1760267836.484375
-48.76,1760267836.5
-54.7,1760267836.515625
-61.42,1760267836.53125
-67.58,1760267836.546875
-71.23,1760267836.5625
-70.38,1760267836.578125
-63.74,1760267836.59375
-51.23,1760267836.609375
-34.16,1760267836.625
-14.85,1760267836.640625
4.12,1760267836.65625
20.61,1760267836.671875
33.36,1760267836.6875
42.0,1760267836.703125
46.87,1760267836.71875
48.62,1760267836.734375
48.01,1760267836.75
45.78,1760267836.765625
42.64,1760267836.78125
39.22,1760267836.796875
36.0,1760267836.8125
33.26,1760267836.828125
31.11,1760267836.84375
29.51,1760267836.859375
28.43,1760267836.875
27.88,1760267836.890625
27.89,1760267836.90625
28.48,1760267836.921875
29.58,1760267836.9375
31.0,1760267836.953125
32.46,1760267836.96875
33.66,1760267836.984375
34.34,1760267837.0
34.28,1760267837.015625
33.3,1760267837.03125
31.32,1760267837.046875
28.34,1760267837.0625
24.48,1760267837.078125
19.98,1760267837.09375
15.18,1760267837.109375
10.43,1760267837.125
5.99,1760267837.140625
1.98,1760267837.15625
-1.58,1760267837.171875
-4.76,1760267837.1875
-7.65,1760267837.203125
-10.34,1760267837.21875
-13.01,1760267837.234375
-15.82,1760267837.25
-18.94,1760267837.265625
-22.42,1760267837.28125
-26.11,1760267837.296875
-29.7,1760267837.3125
-32.82,1760267837.328125
-35.28,1760267837.34375
-37.15,1760267837.359375
-38.83,1760267837.375
-40.94,1760267837.390625
-44.11,1760267837.40625
-48.75,1760267837.421875
-54.83,1760267837.4375
-61.74,1760267837.453125
-68.23,1760267837.46875
-72.58,1760267837.484375
-73.0,1760267837.5
-68.08,1760267837.515625
-57.43,1760267837.53125
-41.87,1760267837.546875
-23.36,1760267837.5625
-4.45,1760267837.578125
12.48,1760267837.59375
25.8,1760267837.609375
35.0,1760267837.625
40.45,1760267837.640625
43.05,1760267837.65625
43.72,1760267837.671875
43.18,1760267837.6875
41.89,1760267837.703125
40.17,1760267837.71875
38.3,1760267837.734375
36.58,1760267837.75
35.19,1760267837.765625
34.17,1760267837.78125
33.37,1760267837.796875
32.63,1760267837.8125
31.89,1760267837.828125
31.28,1760267837.84375
31.03,1760267837.859375
31.33,1760267837.875
32.1,1760267837.890625
33.01,1760267837.90625
33.55,1760267837.921875
33.3,1760267837.9375
32.07,1760267837.953125
29.97,1760267837.96875
27.27,1760267837.984375
24.25,1760267838.0
21.04,1760267838.015625
17.68,1760267838.03125
14.12,1760267838.046875
10.37,1760267838.0625
6.53,1760267838.078125
2.78,1760267838.09375
-0.73,1760267838.109375
-3.86,1760267838.125
-6.59,1760267838.140625
-8.98,1760267838.15625
-11.17,1760267838.171875
-13.38,1760267838.1875
-15.77,1760267838.203125
-18.48,1760267838.21875
-21.5,1760267838.234375
-24.67,1760267838.25
-27.77,1760267838.265625
-30.53,1760267838.28125
-32.8,1760267838.296875
-34.63,1760267838.3125
-36.24,1760267838.328125
-38.07,1760267838.34375
-40.66,1760267838.359375
-44.5,1760267838.375
-49.72,1760267838.390625
-55.85,1760267838.40625
-61.67,1760267838.421875
-65.42,1760267838.4375
-65.28,1760267838.453125
-59.98,1760267838.46875
-49.4,1760267838.484375
-34.68,1760267838.5
-17.92,1760267838.515625
-1.5,1760267838.53125
12.6,1760267838.546875
23.24,1760267838.5625
30.28,1760267838.578125
34.22,1760267838.59375
35.87,1760267838.609375
36.03,1760267838.625
35.3,1760267838.640625
34.08,1760267838.65625
32.67,1760267838.671875
31.27,1760267838.6875
30.0,1760267838.703125
28.92,1760267838.71875
28.0,1760267838.734375
27.23,1760267838.75
26.61,1760267838.765625
26.22,1760267838.78125
26.13,1760267838.796875
26.42,1760267838.8125
27.02,1760267838.828125
27.77,1760267838.84375
28.42,1760267838.859375
28.64,1760267838.875
28.18,1760267838.890625
26.92,1760267838.90625
24.91,1760267838.921875
22.35,1760267838.9375
19.5,1760267838.953125
16.59,1760267838.96875
13.71,1760267838.984375
10.86,1760267839.0
7.97,1760267839.015625
4.99,1760267839.03125
1.95,1760267839.046875
-1.03,1760267839.0625
-3.81,1760267839.078125
-6.32,1760267839.09375
-8.6,1760267839.109375
-10.78,1760267839.125
-13.02,1760267839.140625
-15.41,1760267839.15625
-17.93,1760267839.171875
-20.44,1760267839.1875
-22.77,1760267839.203125
-24.8,1760267839.21875
-26.52,1760267839.234375
-28.09,1760267839.25
-29.86,1760267839.265625
-32.25,1760267839.28125
-35.65,1760267839.296875
-40.18,1760267839.3125
-45.52,1760267839.328125
-50.77,1760267839.34375
-54.53,1760267839.359375
-55.3,1760267839.375
-51.93,1760267839.390625
-44.11,1760267839.40625
-32.52,1760267839.421875
-18.67,1760267839.4375
-4.47,1760267839.453125
8.33,1760267839.46875
18.59,1760267839.484375
25.88,1760267839.5
30.36,1760267839.515625
32.53,1760267839.53125
32.97,1760267839.546875
32.18,1760267839.5625
30.56,1760267839.578125
28.45,1760267839.59375
26.14,1760267839.609375
23.92,1760267839.625
22.03,1760267839.640625
20.66,1760267839.65625
19.86,1760267839.671875
19.6,1760267839.6875
19.74,1760267839.703125
20.13,1760267839.71875
20.62,1760267839.734375
21.07,1760267839.75
21.42,1760267839.765625
21.59,1760267839.78125
21.48,1760267839.796875
21.01,1760267839.8125
20.08,1760267839.828125
18.63,1760267839.84375
16.62,1760267839.859375
14.06,1760267839.875
11.01,1760267839.890625
7.57,1760267839.90625
3.89,1760267839.921875
0.17,1760267839.9375
-3.38,1760267839.953125
-6.56,1760267839.96875
-9.25,1760267839.984375
-11.4,1760267840.0
-13.09,1760267840.015625
-14.46,1760267840.03125
-15.76,1760267840.046875
-17.23,1760267840.0625
-19.04,1760267840.078125
-21.24,1760267840.09375
-23.73,1760267840.109375
-26.28,1760267840.125
-28.65,1760267840.140625
-30.69,1760267840.15625
-32.45,1760267840.171875
-34.24,1760267840.1875
-36.53,1760267840.203125
-39.83,1760267840.21875
-44.43,1760267840.234375
-50.14,1760267840.25
-56.12,1760267840.265625
-60.97,1760267840.28125
-63.0,1760267840.296875
-60.77,1760267840.3125
-53.61,1760267840.328125
-41.95,1760267840.34375
-27.31,1760267840.359375
-11.77,1760267840.375
2.59,1760267840.390625
14.29,1760267840.40625
22.71,1760267840.421875
28.01,1760267840.4375
30.82,1760267840.453125
31.88,1760267840.46875
31.86,1760267840.484375
31.26,1760267840.5
30.43,1760267840.515625
29.61,1760267840.53125
28.89,1760267840.546875
28.23,1760267840.5625
27.54,1760267840.578125
26.72,1760267840.59375
25.76,1760267840.609375
24.8,1760267840.625
24.05,1760267840.640625
23.73,1760267840.65625
23.93,1760267840.671875
24.57,1760267840.6875
25.43,1760267840.703125
26.19,1760267840.71875
26.56,1760267840.734375
26.26,1760267840.75
25.19,1760267840.765625
23.3,1760267840.78125
20.73,1760267840.796875
17.67,1760267840.8125
14.4,1760267840.828125
11.19,1760267840.84375
8.28,1760267840.859375
5.78,1760267840.875
3.62,1760267840.890625
1.61,1760267840.90625
-0.5,1760267840.921875
-2.89,1760267840.9375
-5.53,1760267840.953125
-8.23,1760267840.96875
-10.68,1760267840.984375
-12.6,1760267841.0
-13.9,1760267841.015625
-14.77,1760267841.03125
-15.59,1760267841.046875
-16.85,1760267841.0625
-18.89,1760267841.078125
-21.82,1760267841.09375
-25.46,1760267841.109375
-29.38,1760267841.125
-33.1,1760267841.140625
-36.21,1760267841.15625
-38.62,1760267841.171875
-40.55,1760267841.1875
-42.49,1760267841.203125
-45.11,1760267841.21875
-48.9,1760267841.234375
-53.99,1760267841.25
-59.92,1760267841.265625
-65.59,1760267841.28125
-69.48,1760267841.296875
-69.98,1760267841.3125
-65.91,1760267841.328125
-56.96,1760267841.34375
-43.81,1760267841.359375
-28.08,1760267841.375
-11.78,1760267841.390625
3.15,1760267841.40625
15.33,1760267841.421875
24.16,1760267841.4375
29.72,1760267841.453125
32.62,1760267841.46875
33.65,1760267841.484375
33.62,1760267841.5
33.19,1760267841.515625
32.76,1760267841.53125
32.51,1760267841.546875
32.42,1760267841.5625
32.34,1760267841.578125
32.18,1760267841.59375
31.88,1760267841.609375
31.54,1760267841.625
31.26,1760267841.640625
31.1,1760267841.65625
31.08,1760267841.671875
31.13,1760267841.6875
31.25,1760267841.703125
31.42,1760267841.71875
31.63,1760267841.734375
31.8,1760267841.75
31.7,1760267841.765625
31.05,1760267841.78125
29.6,1760267841.796875
27.28,1760267841.8125
24.22,1760267841.828125
20.76,1760267841.84375
17.27,1760267841.859375
14.06,1760267841.875
11.23,1760267841.890625
8.73,1760267841.90625
6.41,1760267841.921875
4.09,1760267841.9375
1.64,1760267841.953125
-1.0,1760267841.96875
-3.77,1760267841.984375
-6.58,1760267842.0
-9.25,1760267842.015625
-11.66,1760267842.03125
-13.72,1760267842.046875
-15.52,1760267842.0625
-17.27,1760267842.078125
-19.26,1760267842.09375
-21.72,1760267842.109375
-24.72,1760267842.125
-28.09,1760267842.140625
-31.49,1760267842.15625
-34.54,1760267842.171875
-37.07,1760267842.1875
-39.16,1760267842.203125
-41.16,1760267842.21875
-43.64,1760267842.234375
-47.14,1760267842.25
-52.02,1760267842.265625
-58.25,1760267842.28125
-65.23,1760267842.296875
-71.74,1760267842.3125
-76.09,1760267842.328125
-76.5,1760267842.34375
-71.68,1760267842.359375
-61.3,1760267842.375
-46.25,1760267842.390625
-28.44,1760267842.40625
-10.26,1760267842.421875
6.17,1760267842.4375
19.45,1760267842.453125
29.09,1760267842.46875
35.35,1760267842.484375
38.86,1760267842.5
40.36,1760267842.515625
40.47,1760267842.53125
39.76,1760267842.546875
38.68,1760267842.5625
37.61,1760267842.578125
36.77,1760267842.59375
36.19,1760267842.609375
35.8,1760267842.625
35.47,1760267842.640625
35.14,1760267842.65625
34.89,1760267842.671875
34.86,1760267842.6875
35.16,1760267842.703125
35.83,1760267842.71875
36.78,1760267842.734375
37.82,1760267842.75
38.69,1760267842.765625
39.11,1760267842.78125
38.82,1760267842.796875
37.66,1760267842.8125
35.55,1760267842.828125
32.61,1760267842.84375
29.09,1760267842.859375
25.3,1760267842.875
21.54,1760267842.890625
18.05,1760267842.90625
14.91,1760267842.921875
12.09,1760267842.9375
9.53,1760267842.953125
7.1,1760267842.96875
4.73,1760267842.984375
2.33,1760267843.0
-0.15,1760267843.015625
-2.75,1760267843.03125
-5.4,1760267843.046875
-7.98,1760267843.0625
-10.35,1760267843.078125
-12.43,1760267843.09375
-14.28,1760267843.109375
-16.11,1760267843.125
-18.21,1760267843.140625
-20.78,1760267843.15625
-23.83,1760267843.171875
-27.14,1760267843.1875
-30.32,1760267843.203125
-33.04,1760267843.21875
-35.2,1760267843.234375
-36.97,1760267843.25
-38.79,1760267843.265625
-41.21,1760267843.28125
-44.69,1760267843.296875
-49.49,1760267843.3125
-55.47,1760267843.328125
-61.99,1760267843.34375
-67.85,1760267843.359375
-71.41,1760267843.375
-70.99,1760267843.390625
-65.34,1760267843.40625
-54.17,1760267843.421875
-38.4,1760267843.4375
-19.93,1760267843.453125
-1.23,1760267843.46875
15.45,1760267843.484375
28.6,1760267843.5
37.67,1760267843.515625
42.92,1760267843.53125
45.09,1760267843.546875
45.03,1760267843.5625
43.49,1760267843.578125
41.09,1760267843.59375
38.31,1760267843.609375
35.61,1760267843.625
33.34,1760267843.640625
31.76,1760267843.65625
30.96,1760267843.671875
30.86,1760267843.6875
31.28,1760267843.703125
32.0,1760267843.71875
32.84,1760267843.734375
33.78,1760267843.75
34.84,1760267843.765625
36.07,1760267843.78125
37.38,1760267843.796875
38.52,1760267843.8125
39.12,1760267843.828125
38.77,1760267843.84375
37.23,1760267843.859375
34.49,1760267843.875
30.86,1760267843.890625
26.79,1760267843.90625
22.72,1760267843.921875
18.95,1760267843.9375
15.59,1760267843.953125
12.55,1760267843.96875
9.63,1760267843.984375
6.64,1760267844.0
3.47,1760267844.015625
0.11,1760267844.03125
-3.27,1760267844.046875
-6.44,1760267844.0625
-9.17,1760267844.078125
-11.38,1760267844.09375
-13.16,1760267844.109375
-14.83,1760267844.125
-16.77,1760267844.140625
-19.3,1760267844.15625
-22.47,1760267844.171875
-26.08,1760267844.1875
-29.71,1760267844.203125
-32.93,1760267844.21875
-35.48,1760267844.234375
-37.46,1760267844.25
-39.22,1760267844.265625
-41.37,1760267844.28125
-44.53,1760267844.296875
-49.12,1760267844.3125
-55.16,1760267844.328125
-62.07,1760267844.34375
-68.59,1760267844.359375
-72.99,1760267844.375
-73.45,1760267844.390625
-68.58,1760267844.40625
-58.01,1760267844.421875
-42.57,1760267844.4375
-24.15,1760267844.453125
-5.2,1760267844.46875
12.02,1760267844.484375
25.91,1760267844.5
35.86,1760267844.515625
42.06,1760267844.53125
45.19,1760267844.546875
46.06,1760267844.5625
45.39,1760267844.578125
43.74,1760267844.59375
41.55,1760267844.609375
39.17,1760267844.625
36.91,1760267844.640625
34.99,1760267844.65625
33.55,1760267844.671875
32.61,1760267844.6875
32.11,1760267844.703125
31.95,1760267844.71875
32.0,1760267844.734375
32.2,1760267844.75
32.51,1760267844.765625
32.94,1760267844.78125
33.51,1760267844.796875
34.16,1760267844.8125
34.66,1760267844.828125
34.73,1760267844.84375
34.02,1760267844.859375
32.29,1760267844.875
29.51,1760267844.890625
25.91,1760267844.90625
21.89,1760267844.921875
17.88,1760267844.9375
14.22,1760267844.953125
11.05,1760267844.96875
8.33,1760267844.984375
5.89,1760267845.0
3.49,1760267845.015625
0.97,1760267845.03125
-1.77,1760267845.046875
-4.67,1760267845.0625
-7.58,1760267845.078125
-10.28,1760267845.09375
-12.63,1760267845.109375
-14.58,1760267845.125
-16.21,1760267845.140625
-17.77,1760267845.15625
-19.5,1760267845.171875
-21.62,1760267845.1875
-24.22,1760267845.203125
-27.2,1760267845.21875
-30.32,1760267845.234375
-33.32,1760267845.25
-35.99,1760267845.265625
-38.33,1760267845.28125
-40.57,1760267845.296875
-43.17,1760267845.3125
-46.66,1760267845.328125
-51.43,1760267845.34375
-57.42,1760267845.359375
-63.97,1760267845.375
-69.76,1760267845.390625
-73.02,1760267845.40625
-72.0,1760267845.421875
-65.57,1760267845.4375
-53.62,1760267845.453125
-37.29,1760267845.46875
-18.64,1760267845.484375
-0.08,1760267845.5
16.24,1760267845.515625
28.99,1760267845.53125
37.75,1760267845.546875
42.82,1760267845.5625
44.89,1760267845.578125
44.74,1760267845.59375
43.07,1760267845.609375
40.49,1760267845.625
37.56,1760267845.640625
34.73,1760267845.65625
32.3,1760267845.671875
30.42,1760267845.6875
29.11,1760267845.703125
28.26,1760267845.71875
27.85,1760267845.734375
27.88,1760267845.75
28.37,1760267845.765625
29.32,1760267845.78125
30.59,1760267845.796875
31.95,1760267845.8125
33.16,1760267845.828125
33.97,1760267845.84375
34.19,1760267845.859375
33.67,1760267845.875
32.33,1760267845.890625
30.17,1760267845.90625
27.28,1760267845.921875
23.88,1760267845.9375
20.27,1760267845.953125
16.74,1760267845.96875
13.49,1760267845.984375
10.58,1760267846.0
7.91,1760267846.015625
5.32,1760267846.03125
2.64,1760267846.046875
-0.23,1760267846.0625
-3.24,1760267846.078125
-6.25,1760267846.09375
-9.05,1760267846.109375
-11.43,1760267846.125
-13.31,1760267846.140625
-14.82,1760267846.15625
-16.26,1760267846.171875
-18.05,1760267846.1875
-20.51,1760267846.203125
-23.71,1760267846.21875
-27.41,1760267846.234375
-31.17,1760267846.25
-34.53,1760267846.265625
-37.21,1760267846.28125
-39.25,1760267846.296875
-40.96,1760267846.3125
-42.84,1760267846.328125
-45.41,1760267846.34375
-49.09,1760267846.359375
-54.07,1760267846.375
-60.11,1760267846.390625
-66.37,1760267846.40625
-71.39,1760267846.421875
-73.33,1760267846.4375
-70.47,1760267846.453125
-61.87,1760267846.46875
-47.81,1760267846.484375
-29.85,1760267846.5
-10.4,1760267846.515625
8.01,1760267846.53125
23.37,1760267846.546875
34.64,1760267846.5625
41.67,1760267846.578125
45.0,1760267846.59375
45.44,1760267846.609375
43.86,1760267846.625
41.01,1760267846.640625
37.55,1760267846.65625
34.0,1760267846.671875
30.77,1760267846.6875
28.12,1760267846.703125
26.19,1760267846.71875
24.97,1760267846.734375
24.45,1760267846.75
24.56,1760267846.765625
25.2,1760267846.78125
26.32,1760267846.796875
27.8,1760267846.8125
29.54,1760267846.828125
31.35,1760267846.84375
32.95,1760267846.859375
33.99,1760267846.875
34.08,1760267846.890625
32.96,1760267846.90625
30.6,1760267846.921875
27.25,1760267846.9375
23.4,1760267846.953125
19.52,1760267846.96875
15.95,1760267846.984375
12.74,1760267847.0
9.71,1760267847.015625
6.6,1760267847.03125
3.23,1760267847.046875
-0.37,1760267847.0625
-3.99,1760267847.078125
-7.34,1760267847.09375
-10.21,1760267847.109375
-12.58,1760267847.125
-14.6,1760267847.140625
-16.59,1760267847.15625
-18.81,1760267847.171875
-21.41,1760267847.1875
-24.36,1760267847.203125
-27.44,1760267847.21875
-30.38,1760267847.234375
-32.97,1760267847.25
-35.15,1760267847.265625
-37.07,1760267847.28125
-39.08,1760267847.296875
-41.65,1760267847.3125
-45.27,1760267847.328125
-50.21,1760267847.34375
-56.33,1760267847.359375
-62.79,1760267847.375
-68.07,1760267847.390625
-70.3,1760267847.40625
-67.8,1760267847.421875
-59.69,1760267847.4375
-46.31,1760267847.453125
-29.23,1760267847.46875
-10.75,1760267847.484375
6.8,1760267847.5
21.63,1760267847.515625
32.81,1760267847.53125
40.22,1760267847.546875
44.21,1760267847.5625
45.33,1760267847.578125
44.15,1760267847.59375
41.25,1760267847.609375
37.27,1760267847.625
32.89,1760267847.640625
28.77,1760267847.65625
25.38,1760267847.671875
22.98,1760267847.6875
21.54,1760267847.703125
20.88,1760267847.71875
20.77,1760267847.734375
21.06,1760267847.75
21.68,1760267847.765625
22.65,1760267847.78125
23.96,1760267847.796875
25.52,1760267847.8125
27.07,1760267847.828125
28.21,1760267847.84375
28.46,1760267847.859375
27.4,1760267847.875
24.88,1760267847.890625
21.07,1760267847.90625
16.43,1760267847.921875
11.6,1760267847.9375
7.13,1760267847.953125
3.29,1760267847.96875
-0.0,1760267847.984375
-3.12,1760267848.0
-6.49,1760267848.015625
-10.44,1760267848.03125
-14.98,1760267848.046875
-19.86,1760267848.0625
-24.61,1760267848.078125
-28.77,1760267848.09375
-32.03,1760267848.109375
-34.39,1760267848.125
-36.18,1760267848.140625
-38.0,1760267848.15625
-40.58,1760267848.171875
-44.47,1760267848.1875
-49.77,1760267848.203125
-55.94,1760267848.21875
-61.73,1760267848.234375
-65.41,1760267848.25
-65.25,1760267848.265625
-60.07,1760267848.28125
-49.69,1760267848.296875
-35.04,1760267848.3125
-17.97,1760267848.328125
-0.68,1760267848.34375
14.82,1760267848.359375
27.2,1760267848.375
35.92,1760267848.390625
41.1,1760267848.40625
43.22,1760267848.421875
42.89,1760267848.4375
40.65,1760267848.453125
37.04,1760267848.46875
32.62,1760267848.484375
27.97,1760267848.5
23.7,1760267848.515625
20.23,1760267848.53125
17.79,1760267848.546875
16.39,1760267848.5625
15.89,1760267848.578125
16.12,1760267848.59375
16.92,1760267848.609375
18.16,1760267848.625
19.63,1760267848.640625
21.03,1760267848.65625
21.99,1760267848.671875
22.17,1760267848.6875
21.43,1760267848.703125
19.84,1760267848.71875
17.61,1760267848.734375
15.01,1760267848.75
12.11,1760267848.765625
8.84,1760267848.78125
5.03,1760267848.796875
0.54,1760267848.8125
-4.54,1760267848.828125
-9.95,1760267848.84375
-15.29,1760267848.859375
-20.22,1760267848.875
-24.56,1760267848.890625
-28.41,1760267848.90625
-32.05,1760267848.921875
-35.88,1760267848.9375
-40.28,1760267848.953125
-45.48,1760267848.96875
-51.33,1760267848.984375
-57.17,1760267849.0
-61.75,1760267849.015625
-63.45,1760267849.03125
-60.76,1760267849.046875
-52.81,1760267849.0625
-39.85,1760267849.078125
-23.29,1760267849.09375
-5.4,1760267849.109375
11.42,1760267849.125
25.3,1760267849.140625
35.29,1760267849.15625
41.32,1760267849.171875
43.96,1760267849.1875
44.04,1760267849.203125
42.32,1760267849.21875
39.46,1760267849.234375
35.99,1760267849.25
32.36,1760267849.265625
28.92,1760267849.28125
25.91,1760267849.296875
23.49,1760267849.3125
21.71,1760267849.328125
20.57,1760267849.34375
20.04,1760267849.359375
20.07,1760267849.375
20.56,1760267849.390625
21.39,1760267849.40625
22.38,1760267849.421875
23.27,1760267849.4375
23.74,1760267849.453125
23.43,1760267849.46875
21.99,1760267849.484375
19.25,1760267849.5
15.26,1760267849.515625
10.33,1760267849.53125
4.91,1760267849.546875
-0.58,1760267849.5625
-5.9,1760267849.578125
-11.03,1760267849.59375
-16.17,1760267849.609375
-21.54,1760267849.625
-27.23,1760267849.640625
-33.15,1760267849.65625
-39.03,1760267849.671875
-44.56,1760267849.6875
-49.51,1760267849.703125
-53.85,1760267849.71875
-57.79,1760267849.734375
-61.77,1760267849.75
-66.33,1760267849.765625
-71.94,1760267849.78125
-78.68,1760267849.796875
-85.97,1760267849.8125
-92.43,1760267849.828125
-96.03,1760267849.84375
-94.62,1760267849.859375
-86.65,1760267849.875
-71.82,1760267849.890625
-51.32,1760267849.90625
-27.57,1760267849.921875
-3.49,1760267849.9375
18.32,1760267849.953125
36.18,1760267849.96875
49.51,1760267849.984375
58.63,1760267850.0
64.34,1760267850.015625
67.58,1760267850.03125
69.13,1760267850.046875
69.63,1760267850.0625
69.53,1760267850.078125
69.08,1760267850.09375
68.35,1760267850.109375
67.31,1760267850.125
65.82,1760267850.140625
63.8,1760267850.15625
61.32,1760267850.171875
58.69,1760267850.1875
56.44,1760267850.203125
55.21,1760267850.21875
55.54,1760267850.234375
57.63,1760267850.25
61.1,1760267850.265625
65.07,1760267850.28125
68.29,1760267850.296875
69.58,1760267850.3125
68.16,1760267850.328125
63.97,1760267850.34375
57.54,1760267850.359375
49.83,1760267850.375
41.82,1760267850.390625
34.21,1760267850.40625
27.28,1760267850.421875
20.99,1760267850.4375
15.13,1760267850.453125
9.54,1760267850.46875
4.15,1760267850.484375
-1.0,1760267850.5
-5.9,1760267850.515625
-10.59,1760267850.53125
-15.05,1760267850.546875
-19.13,1760267850.5625
-22.45,1760267850.578125
-24.52,1760267850.59375
-24.97,1760267850.609375
-23.86,1760267850.625
-21.85,1760267850.640625
-20.12,1760267850.65625
-19.99,1760267850.671875
-22.51,1760267850.6875
-28.22,1760267850.703125
-36.94,1760267850.71875
-47.88,1760267850.734375
-59.72,1760267850.75
-70.69,1760267850.765625
-78.76,1760267850.78125
-82.0,1760267850.796875
-79.0,1760267850.8125
-69.49,1760267850.828125
-54.48,1760267850.84375
-36.19,1760267850.859375
-17.37,1760267850.875
-0.51,1760267850.890625
12.81,1760267850.90625
22.18,1760267850.921875
28.1,1760267850.9375
31.55,1760267850.953125
33.51,1760267850.96875
34.63,1760267850.984375
35.27,1760267851.0
35.54,1760267851.015625
35.5,1760267851.03125
35.18,1760267851.046875
34.6,1760267851.0625
33.77,1760267851.078125
32.7,1760267851.09375
31.47,1760267851.109375
30.22,1760267851.125
29.2,1760267851.140625
28.63,1760267851.15625
28.64,1760267851.171875
29.2,1760267851.1875
30.09,1760267851.203125
30.93,1760267851.21875
31.35,1760267851.234375
31.0,1760267851.25
29.68,1760267851.265625
27.41,1760267851.28125
24.37,1760267851.296875
20.89,1760267851.3125
17.32,1760267851.328125
13.96,1760267851.34375
10.92,1760267851.359375
8.17,1760267851.375
5.54,1760267851.390625
2.87,1760267851.40625
0.06,1760267851.421875
-2.83,1760267851.4375
-5.62,1760267851.453125
-8.12,1760267851.46875
-10.2,1760267851.484375
-11.94,1760267851.5
-13.59,1760267851.515625
-15.53,1760267851.53125
-18.08,1760267851.546875
-21.31,1760267851.5625
-24.99,1760267851.578125
-28.66,1760267851.59375
-31.82,1760267851.609375
-34.21,1760267851.625
-35.93,1760267851.640625
-37.5,1760267851.65625
-39.64,1760267851.671875
-43.02,1760267851.6875
-47.98,1760267851.703125
-54.25,1760267851.71875
-60.89,1760267851.734375
-66.34,1760267851.75
-68.81,1760267851.765625
-66.74,1760267851.78125
-59.35,1760267851.796875
-47.02,1760267851.8125
-31.25,1760267851.828125
-14.22,1760267851.84375
1.83,1760267851.859375
15.2,1760267851.875
25.11,1760267851.890625
31.59,1760267851.90625
35.21,1760267851.921875
36.7,1760267851.9375
36.75,1760267851.953125
35.86,1760267851.96875
34.43,1760267851.984375
32.74,1760267852.0
31.01,1760267852.015625
29.4,1760267852.03125
27.95,1760267852.046875
26.74,1760267852.0625
25.81,1760267852.078125
25.23,1760267852.09375
25.05,1760267852.109375
25.23,1760267852.125
25.68,1760267852.140625
26.23,1760267852.15625
26.71,1760267852.171875
26.97,1760267852.1875
26.89,1760267852.203125
26.37,1760267852.21875
25.33,1760267852.234375
23.74,1760267852.25
21.61,1760267852.265625
18.99,1760267852.28125
16.03,1760267852.296875
12.88,1760267852.3125
9.7,1760267852.328125
6.6,1760267852.34375
3.65,1760267852.359375
0.85,1760267852.375
-1.8,1760267852.390625
-4.31,1760267852.40625
-6.66,1760267852.421875
-8.88,1760267852.4375
-11.05,1760267852.453125
-13.27,1760267852.46875
-15.69,1760267852.484375
-18.3,1760267852.5
-20.98,1760267852.515625
-23.47,1760267852.53125
-25.52,1760267852.546875
-27.01,1760267852.5625
-28.13,1760267852.578125
-29.31,1760267852.59375
-31.12,1760267852.609375
-34.06,1760267852.625
-38.29,1760267852.640625
-43.48,1760267852.65625
-48.75,1760267852.671875
-52.8,1760267852.6875
-54.21,1760267852.703125
-51.84,1760267852.71875
-45.22,1760267852.734375
-34.79,1760267852.75
-21.81,1760267852.765625
-8.02,1760267852.78125
4.84,1760267852.796875
15.46,1760267852.8125
23.18,1760267852.828125
27.97,1760267852.84375
30.2,1760267852.859375
30.42,1760267852.875
29.21,1760267852.890625
27.05,1760267852.90625
24.35,1760267852.921875
21.47,1760267852.9375
18.75,1760267852.953125
16.51,1760267852.96875
15.01,1760267852.984375
14.45,1760267853.0
14.79,1760267853.015625
15.79,1760267853.03125
17.01,1760267853.046875
18.03,1760267853.0625
18.59,1760267853.078125
18.75,1760267853.09375
18.72,1760267853.109375
18.72,1760267853.125
18.71,1760267853.140625
18.35,1760267853.15625
17.15,1760267853.171875
14.75,1760267853.1875
11.17,1760267853.203125
6.86,1760267853.21875
2.51,1760267853.234375
-1.3,1760267853.25
-4.28,1760267853.265625
-6.59,1760267853.28125
-8.6,1760267853.296875
-10.74,1760267853.3125
-13.27,1760267853.328125
-16.17,1760267853.34375
-19.26,1760267853.359375
-22.23,1760267853.375
-24.87,1760267853.390625
-27.02,1760267853.40625
-28.72,1760267853.421875
-30.13,1760267853.4375
-31.55,1760267853.453125
-33.38,1760267853.46875
-36.07,1760267853.484375
-39.93,1760267853.5
-44.99,1760267853.515625
-50.69,1760267853.53125
-55.9,1760267853.546875
-59.09,1760267853.5625
-58.74,1760267853.578125
-53.83,1760267853.59375
-44.34,1760267853.609375
-31.29,1760267853.625
-16.49,1760267853.640625
-1.97,1760267853.65625
10.53,1760267853.671875
20.01,1760267853.6875
26.27,1760267853.703125
29.69,1760267853.71875
31.02,1760267853.734375
31.04,1760267853.75
30.38,1760267853.765625
29.47,1760267853.78125
28.54,1760267853.796875
27.68,1760267853.8125
26.89,1760267853.828125
26.15,1760267853.84375
25.45,1760267853.859375
24.77,1760267853.875
24.12,1760267853.890625
23.52,1760267853.90625
23.04,1760267853.921875
22.8,1760267853.9375
22.86,1760267853.953125
23.21,1760267853.96875
23.66,1760267853.984375
23.91,1760267854.0
23.63,1760267854.015625
22.56,1760267854.03125
20.62,1760267854.046875
17.93,1760267854.0625
14.71,1760267854.078125
11.18,1760267854.09375
7.56,1760267854.109375
4.02,1760267854.125
0.68,1760267854.140625
-2.39,1760267854.15625
-5.18,1760267854.171875
-7.78,1760267854.1875
-10.34,1760267854.203125
-13.02,1760267854.21875
-15.94,1760267854.234375
-19.1,1760267854.25
-22.39,1760267854.265625
-25.6,1760267854.28125
-28.52,1760267854.296875
-30.99,1760267854.3125
-33.06,1760267854.328125
-34.89,1760267854.34375
-36.85,1760267854.359375
-39.38,1760267854.375
-42.89,1760267854.390625
-47.59,1760267854.40625
-53.34,1760267854.421875
-59.48,1760267854.4375
-64.78,1760267854.453125
-67.72,1760267854.46875
-66.82,1760267854.484375
-61.15,1760267854.5
-50.71,1760267854.515625
-36.61,1760267854.53125
-20.71,1760267854.546875
-5.16,1760267854.5625
8.22,1760267854.578125
18.4,1760267854.59375
25.23,1760267854.609375
29.27,1760267854.625
31.36,1760267854.640625
32.32,1760267854.65625
32.7,1760267854.671875
32.79,1760267854.6875
32.67,1760267854.703125
32.35,1760267854.71875
31.83,1760267854.734375
31.15,1760267854.75
30.34,1760267854.765625
29.48,1760267854.78125
28.6,1760267854.796875
27.77,1760267854.8125
27.08,1760267854.828125
26.6,1760267854.84375
26.36,1760267854.859375
26.37,1760267854.875
26.53,1760267854.890625
26.64,1760267854.90625
26.45,1760267854.921875
25.62,1760267854.9375
23.88,1760267854.953125
21.06,1760267854.96875
17.19,1760267854.984375
12.55,1760267855.0
7.62,1760267855.015625
2.94,1760267855.03125
-1.07,1760267855.046875
-4.23,1760267855.0625
-6.71,1760267855.078125
-8.86,1760267855.09375
-11.14,1760267855.109375
-13.88,1760267855.125
-17.17,1760267855.140625
-20.86,1760267855.15625
-24.62,1760267855.171875
-28.13,1760267855.1875
-31.14,1760267855.203125
-33.62,1760267855.21875
-35.69,1760267855.234375
-37.66,1760267855.25
-39.93,1760267855.265625
-42.93,1760267855.28125
-47.04,1760267855.296875
-52.36,1760267855.3125
-58.55,1760267855.328125
-64.61,1760267855.34375
-69.06,1760267855.359375
-70.19,1760267855.375
-66.7,1760267855.390625
-58.12,1760267855.40625
-45.11,1760267855.421875
-29.32,1760267855.4375
-12.88,1760267855.453125
2.24,1760267855.46875
14.7,1760267855.484375
24.01,1760267855.5
30.41,1760267855.515625
34.52,1760267855.53125
37.03,1760267855.546875
38.45,1760267855.5625
39.09,1760267855.578125
39.1,1760267855.59375
38.58,1760267855.609375
37.67,1760267855.625
36.52,1760267855.640625
35.36,1760267855.65625
34.38,1760267855.671875
33.72,1760267855.6875
33.46,1760267855.703125
33.55,1760267855.71875
33.9,1760267855.734375
34.35,1760267855.75
34.75,1760267855.765625
34.97,1760267855.78125
34.93,1760267855.796875
34.49,1760267855.8125
33.48,1760267855.828125
31.67,1760267855.84375
28.85,1760267855.859375
25.04,1760267855.875
20.45,1760267855.890625
15.55,1760267855.90625
10.86,1760267855.921875
6.78,1760267855.9375
3.44,1760267855.953125
0.66,1760267855.96875
-1.93,1760267855.984375
-4.77,1760267856.0
-8.12,1760267856.015625
-12.06,1760267856.03125
-16.37,1760267856.046875
-20.68,1760267856.0625
-24.57,1760267856.078125
-27.73,1760267856.09375
-30.11,1760267856.109375
-31.95,1760267856.125
-33.74,1760267856.140625
-36.11,1760267856.15625
-39.65,1760267856.171875
-44.68,1760267856.1875
-51.1,1760267856.203125
-58.19,1760267856.21875
-64.67,1760267856.234375
-68.81,1760267856.25
-68.89,1760267856.265625
-63.73,1760267856.28125
-53.1,1760267856.296875
-37.99,1760267856.3125
-20.36,1760267856.328125
-2.65,1760267856.34375
12.99,1760267856.359375
25.19,1760267856.375
33.61,1760267856.390625
38.75,1760267856.40625
41.53,1760267856.421875
42.9,1760267856.4375
43.51,1760267856.453125
43.68,1760267856.46875
43.51,1760267856.484375
43.02,1760267856.5
42.27,1760267856.515625
41.37,1760267856.53125
40.45,1760267856.546875
39.62,1760267856.5625
38.9,1760267856.578125
38.32,1760267856.59375
37.89,1760267856.609375
37.71,1760267856.625
37.86,1760267856.640625
38.3,1760267856.65625
38.85,1760267856.671875
39.13,1760267856.6875
38.71,1760267856.703125
37.23,1760267856.71875
34.6,1760267856.734375
31.07,1760267856.75
27.1,1760267856.765625
23.19,1760267856.78125
19.68,1760267856.796875
16.59,1760267856.8125
13.72,1760267856.828125
10.75,1760267856.84375
7.46,1760267856.859375
3.84,1760267856.875
0.13,1760267856.890625
-3.37,1760267856.90625
-6.42,1760267856.921875
-8.99,1760267856.9375
-11.26,1760267856.953125
-13.56,1760267856.96875
-16.21,1760267856.984375
-19.39,1760267857.0
-23.06,1760267857.015625
-27.01,1760267857.03125
-30.89,1760267857.046875
-34.38,1760267857.0625
-37.31,1760267857.078125
-39.75,1760267857.09375
-42.07,1760267857.109375
-44.79,1760267857.125
-48.5,1760267857.140625
-53.62,1760267857.15625
-60.1,1760267857.171875
-67.21,1760267857.1875
-73.5,1760267857.203125
-77.05,1760267857.21875
-75.97,1760267857.234375
-69.1,1760267857.25
-56.46,1760267857.265625
-39.47,1760267857.28125
-20.46,1760267857.296875
-2.08,1760267857.3125
13.6,1760267857.328125
25.5,1760267857.34375
33.63,1760267857.359375
38.73,1760267857.375
41.75,1760267857.390625
43.49,1760267857.40625
44.4,1760267857.421875
44.71,1760267857.4375
44.53,1760267857.453125
43.98,1760267857.46875
43.24,1760267857.484375
42.46,1760267857.5
41.72,1760267857.515625
40.98,1760267857.53125
40.24,1760267857.546875
39.49,1760267857.5625
38.86,1760267857.578125
38.51,1760267857.59375
38.56,1760267857.609375
39.01,1760267857.625
39.61,1760267857.640625
39.98,1760267857.65625
39.67,1760267857.671875
38.4,1760267857.6875
36.09,1760267857.703125
32.95,1760267857.71875
29.3,1760267857.734375
25.46,1760267857.75
21.65,1760267857.765625
18.02,1760267857.78125
14.67,1760267857.796875
11.68,1760267857.8125
9.06,1760267857.828125
6.74,1760267857.84375
4.5,1760267857.859375
2.12,1760267857.875
-0.56,1760267857.890625
-3.48,1760267857.90625
-6.4,1760267857.921875
-9.0,1760267857.9375
-11.03,1760267857.953125
-12.51,1760267857.96875
-13.73,1760267857.984375
-15.15,1760267858.0
-17.19,1760267858.015625
-20.09,1760267858.03125
-23.75,1760267858.046875
-27.81,1760267858.0625
-31.79,1760267858.078125
-35.26,1760267858.09375
-38.01,1760267858.109375
-40.11,1760267858.125
-41.91,1760267858.140625
-43.93,1760267858.15625
-46.75,1760267858.171875
-50.86,1760267858.1875
-56.46,1760267858.203125
-63.21,1760267858.21875
-70.11,1760267858.234375
-75.48,1760267858.25
-77.33,1760267858.265625
-73.97,1760267858.28125
-64.64,1760267858.296875
-49.99,1760267858.3125
-31.88,1760267858.328125
-12.93,1760267858.34375
4.37,1760267858.359375
18.3,1760267858.375
28.23,1760267858.390625
34.45,1760267858.40625
37.8,1760267858.421875
39.18,1760267858.4375
39.36,1760267858.453125
38.92,1760267858.46875
38.27,1760267858.484375
37.71,1760267858.5
37.41,1760267858.515625
37.37,1760267858.53125
37.44,1760267858.546875
37.38,1760267858.5625
37.02,1760267858.578125
36.35,1760267858.59375
35.54,1760267858.609375
34.84,1760267858.625
34.52,1760267858.640625
34.72,1760267858.65625
35.38,1760267858.671875
36.23,1760267858.6875
36.87,1760267858.703125
36.84,1760267858.71875
35.77,1760267858.734375
33.48,1760267858.75
30.08,1760267858.765625
25.93,1760267858.78125
21.56,1760267858.796875
17.51,1760267858.8125
14.16,1760267858.828125
11.63,1760267858.84375
9.76,1760267858.859375
8.17,1760267858.875
6.46,1760267858.890625
4.29,1760267858.90625
1.58,1760267858.921875
-1.5,1760267858.9375
-4.6,1760267858.953125
-7.32,1760267858.96875
-9.43,1760267858.984375
-10.97,1760267859.0
-12.25,1760267859.015625
-13.74,1760267859.03125
-15.82,1760267859.046875
-18.64,1760267859.0625
-22.03,1760267859.078125
-25.6,1760267859.09375
-28.94,1760267859.109375
-31.77,1760267859.125
-34.09,1760267859.140625
-36.08,1760267859.15625
-38.09,1760267859.171875
-40.53,1760267859.1875
-43.82,1760267859.203125
-48.27,1760267859.21875
-53.83,1760267859.234375
-59.95,1760267859.25
-65.37,1760267859.265625
-68.32,1760267859.28125
-67.07,1760267859.296875
-60.52,1760267859.3125
-48.74,1760267859.328125
-33.13,1760267859.34375
-15.95,1760267859.359375
0.39,1760267859.375
14.05,1760267859.390625
24.2,1760267859.40625
30.9,1760267859.421875
34.8,1760267859.4375
36.65,1760267859.453125
37.07,1760267859.46875
36.48,1760267859.484375
35.24,1760267859.5
33.71,1760267859.515625
32.23,1760267859.53125
31.06,1760267859.546875
30.3,1760267859.5625
29.86,1760267859.578125
29.52,1760267859.59375
29.15,1760267859.609375
28.73,1760267859.625
28.37,1760267859.640625
28.25,1760267859.65625
28.45,1760267859.671875
28.86,1760267859.6875
29.22,1760267859.703125
29.17,1760267859.71875
28.41,1760267859.734375
26.85,1760267859.75
24.6,1760267859.765625
21.95,1760267859.78125
19.2,1760267859.796875
16.53,1760267859.8125
13.96,1760267859.828125
11.38,1760267859.84375
8.61,1760267859.859375
5.59,1760267859.875
2.34,1760267859.890625
-0.98,1760267859.90625
-4.19,1760267859.921875
-7.13,1760267859.9375
-9.74,1760267859.953125
-12.08,1760267859.96875
-14.26,1760267859.984375
-16.45,1760267860.0
-18.8,1760267860.015625
-21.35,1760267860.03125
-24.08,1760267860.046875
-26.91,1760267860.0625
-29.72,1760267860.078125
-32.42,1760267860.09375
-34.95,1760267860.109375
-37.35,1760267860.125
-39.82,1760267860.140625
-42.75,1760267860.15625
-46.55,1760267860.171875
-51.46,1760267860.1875
-57.15,1760267860.203125
-62.6,1760267860.21875
-66.17,1760267860.234375
-66.12,1760267860.25
-61.2,1760267860.265625
-51.27,1760267860.28125
-37.37,1760267860.296875
-21.4,1760267860.3125
-5.53,1760267860.328125
8.45,1760267860.34375
19.45,1760267860.359375
27.12,1760267860.375
31.68,1760267860.390625
33.61,1760267860.40625
33.5,1760267860.421875
31.97,1760267860.4375
29.65,1760267860.453125
27.09,1760267860.46875
24.75,1760267860.484375
22.93,1760267860.5
21.78,1760267860.515625
21.24,1760267860.53125
21.19,1760267860.546875
21.41,1760267860.5625
21.7,1760267860.578125
21.96,1760267860.59375
22.18,1760267860.609375
22.45,1760267860.625
22.84,1760267860.640625
23.31,1760267860.65625
23.61,1760267860.671875
23.35,1760267860.6875
22.15,1760267860.703125
19.79,1760267860.71875
16.35,1760267860.734375
12.23,1760267860.75
7.99,1760267860.765625
4.15,1760267860.78125
1.01,1760267860.796875
-1.48,1760267860.8125
-3.63,1760267860.828125
-5.88,1760267860.84375
-8.64,1760267860.859375
-12.06,1760267860.875
-15.99,1760267860.890625
-20.05,1760267860.90625
-23.76,1760267860.921875
-26.78,1760267860.9375
-29.01,1760267860.953125
-30.73,1760267860.96875
-32.49,1760267860.984375
-34.94,1760267861.0
-38.59,1760267861.015625
-43.59,1760267861.03125
-49.48,1760267861.046875
-55.14,1760267861.0625
-59.04,1760267861.078125
-59.54,1760267861.09375
-55.44,1760267861.109375
-46.48,1760267861.125
-33.47,1760267861.140625
-18.11,1760267861.15625
-2.55,1760267861.171875
11.27,1760267861.1875
22.06,1760267861.203125
29.35,1760267861.21875
33.42,1760267861.234375
34.92,1760267861.25
34.67,1760267861.265625
33.37,1760267861.28125
31.56,1760267861.296875
29.59,1760267861.3125
27.61,1760267861.328125
25.68,1760267861.34375
23.85,1760267861.359375
22.21,1760267861.375
20.91,1760267861.390625
20.17,1760267861.40625
20.12,1760267861.421875
20.73,1760267861.4375
21.77,1760267861.453125
22.87,1760267861.46875
23.66,1760267861.484375
23.85,1760267861.5
23.27,1760267861.515625
21.86,1760267861.53125
19.64,1760267861.546875
16.68,1760267861.5625
13.13,1760267861.578125
9.15,1760267861.59375
4.98,1760267861.609375
0.75,1760267861.625
-3.43,1760267861.640625
-7.59,1760267861.65625
-11.73,1760267861.671875
-15.82,1760267861.6875
-19.76,1760267861.703125
-23.39,1760267861.71875
-26.63,1760267861.734375
-29.52,1760267861.75
-32.26,1760267861.765625
-35.17,1760267861.78125
-38.62,1760267861.796875
-42.9,1760267861.8125
-48.04,1760267861.828125
-53.66,1760267861.84375
-58.86,1760267861.859375
-62.26,1760267861.875
-62.3,1760267861.890625
-57.76,1760267861.90625
-48.22,1760267861.921875
-34.41,1760267861.9375
-18.1,1760267861.953125
-1.61,1760267861.96875
12.96,1760267861.984375
24.26,1760267862.0
31.91,1760267862.015625
36.38,1760267862.03125
38.53,1760267862.046875
39.19,1760267862.0625
38.92,1760267862.078125
38.0,1760267862.09375
36.61,1760267862.109375
34.92,1760267862.125
33.19,1760267862.140625
31.7,1760267862.15625
30.68,1760267862.171875
30.2,1760267862.1875
30.17,1760267862.203125
30.4,1760267862.21875
30.68,1760267862.234375
30.9,1760267862.25
31.02,1760267862.265625
31.1,1760267862.28125
31.16,1760267862.296875
31.12,1760267862.3125
30.76,1760267862.328125
29.8,1760267862.34375
27.95,1760267862.359375
25.04,1760267862.375
21.09,1760267862.390625
16.36,1760267862.40625
11.23,1760267862.421875
6.19,1760267862.4375
1.63,1760267862.453125
-2.22,1760267862.46875
-5.39,1760267862.484375
-8.13,1760267862.5
-10.88,1760267862.515625
-14.04,1760267862.53125
-17.81,1760267862.546875
-22.11,1760267862.5625
-26.54,1760267862.578125
-30.65,1760267862.59375
-34.07,1760267862.609375
-36.71,1760267862.625
-38.83,1760267862.640625
-40.96,1760267862.65625
-43.74,1760267862.671875
-47.75,1760267862.6875
-53.28,1760267862.703125
-60.09,1760267862.71875
-67.26,1760267862.734375
-73.21,1760267862.75
-75.97,1760267862.765625
-73.77,1760267862.78125
-65.66,1760267862.796875
-51.96,1760267862.8125
-34.31,1760267862.828125
-15.16,1760267862.84375
2.97,1760267862.859375
18.18,1760267862.875
29.58,1760267862.890625
37.2,1760267862.90625
41.66,1760267862.921875
43.8,1760267862.9375
44.38,1760267862.953125
44.01,1760267862.96875
43.16,1760267862.984375
42.15,1760267863.0
41.2,1760267863.015625
40.38,1760267863.03125
39.65,1760267863.046875
38.96,1760267863.0625
38.26,1760267863.078125
37.59,1760267863.09375
37.04,1760267863.109375
36.73,1760267863.125
36.79,1760267863.140625
37.22,1760267863.15625
37.9,1760267863.171875
38.58,1760267863.1875
38.87,1760267863.203125
38.37,1760267863.21875
36.8,1760267863.234375
34.09,1760267863.25
30.45,1760267863.265625
26.28,1760267863.28125
22.03,1760267863.296875
18.06,1760267863.3125
14.54,1760267863.328125
11.35,1760267863.34375
8.24,1760267863.359375
4.93,1760267863.375
1.28,1760267863.390625
-2.6,1760267863.40625
-6.38,1760267863.421875
-9.73,1760267863.4375
-12.47,1760267863.453125
-14.77,1760267863.46875
-17.03,1760267863.484375
-19.75,1760267863.5
-23.18,1760267863.515625
-27.21,1760267863.53125
-31.41,1760267863.546875
-35.27,1760267863.5625
-38.47,1760267863.578125
-41.0,1760267863.59375
-43.19,1760267863.609375
-45.59,1760267863.625
-48.79,1760267863.640625
-53.28,1760267863.65625
-59.21,1760267863.671875
-66.2,1760267863.6875
-73.12,1760267863.703125
-78.19,1760267863.71875
-79.35,1760267863.734375
-74.9,1760267863.75
-64.2,1760267863.765625
-48.08,1760267863.78125
-28.63,1760267863.796875
-8.64,1760267863.8125
9.33,1760267863.828125
23.58,1760267863.84375
33.54,1760267863.859375
39.62,1760267863.875
42.76,1760267863.890625
43.97,1760267863.90625
44.13,1760267863.921875
43.81,1760267863.9375
43.34,1760267863.953125
42.89,1760267863.96875
42.52,1760267863.984375
42.16,1760267864.0
41.73,1760267864.015625
41.17,1760267864.03125
40.44,1760267864.046875
39.62,1760267864.0625
38.88,1760267864.078125
38.39,1760267864.09375
38.26,1760267864.109375
38.48,1760267864.125
38.9,1760267864.140625
39.27,1760267864.15625
39.31,1760267864.171875
38.75,1760267864.1875
37.39,1760267864.203125
35.19,1760267864.21875
32.2,1760267864.234375
28.59,1760267864.25
24.67,1760267864.265625
20.81,1760267864.28125
17.31,1760267864.296875
14.37,1760267864.3125
11.93,1760267864.328125
9.76,1760267864.34375
7.57,1760267864.359375
5.12,1760267864.375
2.35,1760267864.390625
-0.63,1760267864.40625
-3.6,1760267864.421875
-6.37,1760267864.4375
-8.81,1760267864.453125
-10.88,1760267864.46875
-12.65,1760267864.484375
-14.22,1760267864.5
-15.78,1760267864.515625
-17.57,1760267864.53125
-19.89,1760267864.546875
-22.94,1760267864.5625
-26.71,1760267864.578125
-30.97,1760267864.59375
-35.29,1760267864.609375
-39.2,1760267864.625
-42.36,1760267864.640625
-44.78,1760267864.65625
-46.77,1760267864.671875
-48.94,1760267864.6875
-51.98,1760267864.703125
-56.43,1760267864.71875
-62.42,1760267864.734375
-69.42,1760267864.75
-76.13,1760267864.765625
-80.65,1760267864.78125
-80.95,1760267864.796875
-75.47,1760267864.8125
-63.77,1760267864.828125
-46.81,1760267864.84375
-26.76,1760267864.859375
-6.42,1760267864.875
11.58,1760267864.890625
25.51,1760267864.90625
34.81,1760267864.921875
39.97,1760267864.9375
42.07,1760267864.953125
42.32,1760267864.96875
41.65,1760267864.984375
40.62,1760267865.0
39.49,1760267865.015625
38.36,1760267865.03125
37.36,1760267865.046875
36.61,1760267865.0625
36.19,1760267865.078125
36.11,1760267865.09375
36.23,1760267865.109375
36.39,1760267865.125
36.47,1760267865.140625
36.49,1760267865.15625
36.6,1760267865.171875
36.91,1760267865.1875
37.39,1760267865.203125
37.78,1760267865.21875
37.69,1760267865.234375
36.78,1760267865.25
34.93,1760267865.265625
32.28,1760267865.28125
29.15,1760267865.296875
25.86,1760267865.3125
22.59,1760267865.328125
19.39,1760267865.34375
16.24,1760267865.359375
13.17,1760267865.375
10.25,1760267865.390625
7.55,1760267865.40625
5.11,1760267865.421875
2.82,1760267865.4375
0.53,1760267865.453125
-1.9,1760267865.46875
-4.49,1760267865.484375
-7.15,1760267865.5
-9.7,1760267865.515625
-12.0,1760267865.53125
-13.99,1760267865.546875
-15.74,1760267865.5625
-17.49,1760267865.578125
-19.5,1760267865.59375
-21.97,1760267865.609375
-24.96,1760267865.625
-28.3,1760267865.640625
-31.69,1760267865.65625
-34.82,1760267865.671875
-37.45,1760267865.6875
-39.55,1760267865.703125
-41.36,1760267865.71875
-43.29,1760267865.734375
-45.9,1760267865.75
-49.74,1760267865.765625
-55.11,1760267865.78125
-61.79,1760267865.796875
-68.84,1760267865.8125
-74.62,1760267865.828125
-77.13,1760267865.84375
-74.59,1760267865.859375
-66.14,1760267865.875
-52.18,1760267865.890625
-34.37,1760267865.90625
-15.14,1760267865.921875
3.04,1760267865.9375
18.27,1760267865.953125
29.57,1760267865.96875
36.86,1760267865.984375
40.64,1760267866.0
41.68,1760267866.015625
40.83,1760267866.03125
38.84,1760267866.046875
36.37,1760267866.0625
33.91,1760267866.078125
31.81,1760267866.09375
30.2,1760267866.109375
29.08,1760267866.125
28.36,1760267866.140625
27.99,1760267866.15625
28.0,1760267866.171875
28.42,1760267866.1875
29.32,1760267866.203125
30.66,1760267866.21875
32.31,1760267866.234375
34.02,1760267866.25
35.48,1760267866.265625
36.34,1760267866.28125
36.32,1760267866.296875
35.21,1760267866.3125
32.97,1760267866.328125
29.77,1760267866.34375
25.94,1760267866.359375
21.93,1760267866.375
18.13,1760267866.390625
14.76,1760267866.40625
11.77,1760267866.421875
8.89,1760267866.4375
5.81,1760267866.453125
2.38,1760267866.46875
-1.3,1760267866.484375
-4.88,1760267866.5
-7.96,1760267866.515625
-10.32,1760267866.53125
-12.05,1760267866.546875
-13.54,1760267866.5625
-15.33,1760267866.578125
-17.81,1760267866.59375
-21.09,1760267866.609375
-24.92,1760267866.625
-28.84,1760267866.640625
-32.37,1760267866.65625
-35.21,1760267866.671875
-37.37,1760267866.6875
-39.13,1760267866.703125
-41.03,1760267866.71875
-43.71,1760267866.734375
-47.72,1760267866.75
-53.25,1760267866.765625
-59.84,1760267866.78125
-66.32,1760267866.796875
-70.93,1760267866.8125
-71.73,1760267866.828125
-67.27,1760267866.84375
-57.14,1760267866.859375
-42.14,1760267866.875
-24.19,1760267866.890625
-5.64,1760267866.90625
11.32,1760267866.921875
25.17,1760267866.9375
35.25,1760267866.953125
41.58,1760267866.96875
44.64,1760267866.984375
45.04,1760267867.0
43.47,1760267867.015625
40.64,1760267867.03125
37.21,1760267867.046875
33.83,1760267867.0625
30.97,1760267867.078125
28.89,1760267867.09375
27.64,1760267867.109375
27.12,1760267867.125
27.15,1760267867.140625
27.59,1760267867.15625
28.32,1760267867.171875
29.26,1760267867.1875
30.34,1760267867.203125
31.48,1760267867.21875
32.55,1760267867.234375
33.35,1760267867.25
33.61,1760267867.265625
33.02,1760267867.28125
31.41,1760267867.296875
28.73,1760267867.3125
25.23,1760267867.328125
21.29,1760267867.34375
17.32,1760267867.359375
13.63,1760267867.375
10.28,1760267867.390625
7.16,1760267867.40625
4.05,1760267867.421875
0.83,1760267867.4375
-2.5,1760267867.453125
-5.82,1760267867.46875
-8.95,1760267867.484375
-11.8,1760267867.5
-14.39,1760267867.515625
-16.86,1760267867.53125
-19.43,1760267867.546875
-22.3,1760267867.5625
-25.6,1760267867.578125
-29.28,1760267867.59375
-33.12,1760267867.609375
-36.81,1760267867.625
-40.0,1760267867.640625
-42.53,1760267867.65625
-44.5,1760267867.671875
-46.33,1760267867.6875
-48.7,1760267867.703125
-52.36,1760267867.71875
-57.74,1760267867.734375
-64.73,1760267867.75
-72.45,1760267867.765625
-79.23,1760267867.78125
-83.03,1760267867.796875
-81.93,1760267867.8125
-74.81,1760267867.828125
-61.77,1760267867.84375
-44.18,1760267867.859375
-24.32,1760267867.875
-4.68,1760267867.890625
12.61,1760267867.90625
26.25,1760267867.921875
35.79,1760267867.9375
41.54,1760267867.953125
44.18,1760267867.96875
44.62,1760267867.984375
43.76,1760267868.0
42.4,1760267868.015625
41.12,1760267868.03125
40.19,1760267868.046875
39.61,1760267868.0625
39.18,1760267868.078125
38.67,1760267868.09375
37.97,1760267868.109375
37.18,1760267868.125
36.52,1760267868.140625
36.28,1760267868.15625
36.58,1760267868.171875
37.39,1760267868.1875
38.48,1760267868.203125
39.51,1760267868.21875
40.06,1760267868.234375
39.8,1760267868.25
38.51,1760267868.265625
36.18,1760267868.28125
33.03,1760267868.296875
29.38,1760267868.3125
25.56,1760267868.328125
21.76,1760267868.34375
17.98,1760267868.359375
14.07,1760267868.375
9.9,1760267868.390625
5.51,1760267868.40625
1.1,1760267868.421875
-3.04,1760267868.4375
-6.7,1760267868.453125
-9.88,1760267868.46875
-12.83,1760267868.484375
-15.83,1760267868.5
-19.13,1760267868.515625
-22.77,1760267868.53125
-26.57,1760267868.546875
-30.23,1760267868.5625
-33.5,1760267868.578125
-36.28,1760267868.59375
-38.64,1760267868.609375
-40.88,1760267868.625
-43.43,1760267868.640625
-46.78,1760267868.65625
-51.42,1760267868.671875
-57.53,1760267868.6875
-64.8,1760267868.703125
-72.17,1760267868.71875
-77.91,1760267868.734375
-79.98,1760267868.75
-76.63,1760267868.765625
-67.1,1760267868.78125
-51.97,1760267868.796875
-33.12,1760267868.8125
-13.15,1760267868.828125
5.32,1760267868.84375
20.38,1760267868.859375
31.19,1760267868.875
37.86,1760267868.890625
41.15,1760267868.90625
42.03,1760267868.921875
41.39,1760267868.9375
39.97,1760267868.953125
38.26,1760267868.96875
36.62,1760267868.984375
35.26,1760267869.0
34.27,1760267869.015625
33.63,1760267869.03125
33.28,1760267869.046875
33.11,1760267869.0625
33.05,1760267869.078125
33.0,1760267869.09375
32.92,1760267869.109375
32.77,1760267869.125
32.6,1760267869.140625
32.5,1760267869.15625
32.51,1760267869.171875
32.54,1760267869.1875
32.3,1760267869.203125
31.36,1760267869.21875
29.33,1760267869.234375
25.98,1760267869.25
21.45,1760267869.265625
16.2,1760267869.28125
10.91,1760267869.296875
6.2,1760267869.3125
2.39,1760267869.328125
-0.61,1760267869.34375
-3.26,1760267869.359375
-6.15,1760267869.375
-9.72,1760267869.390625
-14.02,1760267869.40625
-18.73,1760267869.421875
-23.26,1760267869.4375
-27.05,1760267869.453125
-29.82,1760267869.46875
-31.67,1760267869.484375
-33.09,1760267869.5
-34.75,1760267869.515625
-37.33,1760267869.53125
-41.35,1760267869.546875
-46.91,1760267869.5625
-53.59,1760267869.578125
-60.3,1760267869.59375
-65.42,1760267869.609375
-67.12,1760267869.625
-63.92,1760267869.640625
-55.22,1760267869.65625
-41.66,1760267869.671875
-25.0,1760267869.6875
-7.6,1760267869.703125
8.29,1760267869.71875
21.09,1760267869.734375
30.19,1760267869.75
35.83,1760267869.765625
38.71,1760267869.78125
39.65,1760267869.796875
39.32,1760267869.8125
38.13,1760267869.828125
36.32,1760267869.84375
34.09,1760267869.859375
31.63,1760267869.875
29.22,1760267869.890625
27.13,1760267869.90625
25.62,1760267869.921875
24.83,1760267869.9375
24.78,1760267869.953125
25.39,1760267869.96875
26.48,1760267869.984375
27.84,1760267870.0
29.16,1760267870.015625
30.12,1760267870.03125
30.34,1760267870.046875
29.51,1760267870.0625
27.45,1760267870.078125
24.22,1760267870.09375
20.11,1760267870.109375
15.52,1760267870.125
10.84,1760267870.140625
6.33,1760267870.15625
2.01,1760267870.171875
-2.22,1760267870.1875
-6.51,1760267870.203125
-10.92,1760267870.21875
-15.36,1760267870.234375
-19.6,1760267870.25
-23.4,1760267870.265625
-26.59,1760267870.28125
-29.15,1760267870.296875
-31.33,1760267870.3125
-33.6,1760267870.328125
-36.56,1760267870.34375
-40.73,1760267870.359375
-46.24,1760267870.375
-52.63,1760267870.390625
-58.67,1760267870.40625
-62.66,1760267870.421875
-62.78,1760267870.4375
-57.78,1760267870.453125
-47.45,1760267870.46875
-32.82,1760267870.484375
-15.86,1760267870.5
1.05,1760267870.515625
15.84,1760267870.53125
27.27,1760267870.546875
35.04,1760267870.5625
39.62,1760267870.578125
41.89,1760267870.59375
42.66,1760267870.609375
42.54,1760267870.625
41.83,1760267870.640625
40.71,1760267870.65625
39.3,1760267870.671875
37.75,1760267870.6875
36.25,1760267870.703125
34.97,1760267870.71875
34.03,1760267870.734375
33.47,1760267870.75
33.24,1760267870.765625
33.24,1760267870.78125
33.32,1760267870.796875
33.4,1760267870.8125
33.39,1760267870.828125
33.28,1760267870.84375
33.02,1760267870.859375
32.51,1760267870.875
31.47,1760267870.890625
29.59,1760267870.90625
26.58,1760267870.921875
22.4,1760267870.9375
17.3,1760267870.953125
11.79,1760267870.96875
6.51,1760267870.984375
1.94,1760267871.0
-1.72,1760267871.015625
-4.58,1760267871.03125
-7.03,1760267871.046875
-9.49,1760267871.0625
-12.35,1760267871.078125
-15.8,1760267871.09375
-19.8,1760267871.109375
-24.12,1760267871.125
-28.38,1760267871.140625
-32.2,1760267871.15625
-35.34,1760267871.171875
-37.83,1760267871.1875
-39.98,1760267871.203125
-42.38,1760267871.21875
-45.7,1760267871.234375
-50.45,1760267871.25
-56.72,1760267871.265625
-63.97,1760267871.28125
-70.92,1760267871.296875
-75.76,1760267871.3125
-76.57,1760267871.328125
-71.95,1760267871.34375
-61.51,1760267871.359375
-46.21,1760267871.375
-28.07,1760267871.390625
-9.62,1760267871.40625
6.9,1760267871.421875
20.08,1760267871.4375
29.58,1760267871.453125
35.85,1760267871.46875
39.77,1760267871.484375
42.2,1760267871.5
43.76,1760267871.515625
44.82,1760267871.53125
45.57,1760267871.546875
46.04,1760267871.5625
46.21,1760267871.578125
45.96,1760267871.59375
45.2,1760267871.609375
43.88,1760267871.625
42.1,1760267871.640625
40.15,1760267871.65625
38.44,1760267871.671875
37.35,1760267871.6875
37.08,1760267871.703125
37.49,1760267871.71875
38.17,1760267871.734375
38.57,1760267871.75
38.17,1760267871.765625
36.71,1760267871.78125
34.22,1760267871.796875
30.95,1760267871.8125
27.28,1760267871.828125
23.49,1760267871.84375
19.78,1760267871.859375
16.19,1760267871.875
12.71,1760267871.890625
9.28,1760267871.90625
5.9,1760267871.921875
2.56,1760267871.9375
-0.73,1760267871.953125
-3.96,1760267871.96875
-7.15,1760267871.984375
-10.32,1760267872.0
-13.51,1760267872.015625
-16.78,1760267872.03125
-20.16,1760267872.046875
-23.61,1760267872.0625
-27.02,1760267872.078125
-30.24,1760267872.09375
-33.14,1760267872.109375
-35.73,1760267872.125
-38.17,1760267872.140625
-40.8,1760267872.15625
-44.08,1760267872.171875
-48.43,1760267872.1875
-54.02,1760267872.203125
-60.5,1760267872.21875
-66.85,1760267872.234375
-71.48,1760267872.25
-72.56,1760267872.265625
-68.62,1760267872.28125
-59.18,1760267872.296875
-45.0,1760267872.3125
-27.98,1760267872.328125
-10.54,1760267872.34375
5.1,1760267872.359375
17.55,1760267872.375
26.43,1760267872.390625
32.2,1760267872.40625
35.67,1760267872.421875
37.67,1760267872.4375
38.81,1760267872.453125
39.42,1760267872.46875
39.64,1760267872.484375
39.55,1760267872.5
39.14,1760267872.515625
38.38,1760267872.53125
37.3,1760267872.546875
36.0,1760267872.5625
34.68,1760267872.578125
33.58,1760267872.59375
32.86,1760267872.609375
32.55,1760267872.625
32.57,1760267872.640625
32.74,1760267872.65625
32.86,1760267872.671875
32.79,1760267872.6875
32.37,1760267872.703125
31.43,1760267872.71875
29.81,1760267872.734375
27.37,1760267872.75
24.12,1760267872.765625
20.22,1760267872.78125
15.98,1760267872.796875
11.73,1760267872.8125
7.71,1760267872.828125
4.07,1760267872.84375
0.83,1760267872.859375
-2.07,1760267872.875
-4.67,1760267872.890625
-7.06,1760267872.90625
-9.36,1760267872.921875
-11.76,1760267872.9375
-14.41,1760267872.953125
-17.39,1760267872.96875
-20.6,1760267872.984375
-23.81,1760267873.0
-26.74,1760267873.015625
-29.19,1760267873.03125
-31.18,1760267873.046875
-32.97,1760267873.0625
-34.9,1760267873.078125
-37.41,1760267873.09375
-40.86,1760267873.109375
-45.38,1760267873.125
-50.76,1760267873.140625
-56.26,1760267873.15625
-60.58,1760267873.171875
-62.14,1760267873.1875
-59.49,1760267873.203125
-51.93,1760267873.21875
-39.87,1760267873.234375
-24.84,1760267873.25
-9.02,1760267873.265625
5.44,1760267873.28125
17.1,1760267873.296875
25.46,1760267873.3125
30.83,1760267873.328125
33.89,1760267873.34375
35.34,1760267873.359375
35.65,1760267873.375
35.12,1760267873.390625
34.01,1760267873.40625
32.55,1760267873.421875
31.0,1760267873.4375
29.54,1760267873.453125
28.26,1760267873.46875
27.15,1760267873.484375
26.21,1760267873.5
25.46,1760267873.515625
24.99,1760267873.53125
24.91,1760267873.546875
25.26,1760267873.5625
25.96,1760267873.578125
26.81,1760267873.59375
27.48,1760267873.609375
27.56,1760267873.625
26.69,1760267873.640625
24.71,1760267873.65625
21.68,1760267873.671875
17.97,1760267873.6875
14.07,1760267873.703125
10.41,1760267873.71875
7.22,1760267873.734375
4.48,1760267873.75
1.94,1760267873.765625
-0.64,1760267873.78125
-3.4,1760267873.796875
-6.25,1760267873.8125
-8.97,1760267873.828125
-11.34,1760267873.84375
-13.26,1760267873.859375
-14.81,1760267873.875
-16.28,1760267873.890625
-18.02,1760267873.90625
-20.32,1760267873.921875
-23.26,1760267873.9375
-26.7,1760267873.953125
-30.33,1760267873.96875
-33.79,1760267873.984375
-36.8,1760267874.0
-39.26,1760267874.015625
-41.31,1760267874.03125
-43.27,1760267874.046875
-45.65,1760267874.0625
-48.95,1760267874.078125
-53.52,1760267874.09375
-59.23,1760267874.109375
-65.31,1760267874.125
-70.27,1760267874.140625
-72.24,1760267874.15625
-69.57,1760267874.171875
-61.43,1760267874.1875
-48.29,1760267874.203125
-31.8,1760267874.21875
-14.37,1760267874.234375
1.71,1760267874.25
14.84,1760267874.265625
24.44,1760267874.28125
30.79,1760267874.296875
34.6,1760267874.3125
36.66,1760267874.328125
37.54,1760267874.34375
37.61,1760267874.359375
37.16,1760267874.375
36.48,1760267874.390625
35.77,1760267874.40625
35.16,1760267874.421875
34.63,1760267874.4375
34.03,1760267874.453125
33.27,1760267874.46875
32.37,1760267874.484375
31.46,1760267874.5
30.78,1760267874.515625
30.44,1760267874.53125
30.43,1760267874.546875
30.59,1760267874.5625
30.69,1760267874.578125
30.57,1760267874.59375
30.12,1760267874.609375
29.32,1760267874.625
28.13,1760267874.640625
26.52,1760267874.65625
24.36,1760267874.671875
21.65,1760267874.6875
18.46,1760267874.703125
15.07,1760267874.71875
11.78,1760267874.734375
8.84,1760267874.75
6.32,1760267874.765625
4.05,1760267874.78125
1.76,1760267874.796875
-0.76,1760267874.8125
-3.54,1760267874.828125
-6.38,1760267874.84375
-8.99,1760267874.859375
-11.1,1760267874.875
-12.67,1760267874.890625
-13.86,1760267874.90625
-15.05,1760267874.921875
-16.62,1760267874.9375
-18.87,1760267874.953125
-21.87,1760267874.96875
-25.49,1760267874.984375
-29.42,1760267875.0
-33.25,1760267875.015625
-36.64,1760267875.03125
-39.39,1760267875.046875
-41.54,1760267875.0625
-43.39,1760267875.078125
-45.44,1760267875.09375
-48.31,1760267875.109375
-52.49,1760267875.125
-58.14,1760267875.140625
-64.76,1760267875.15625
-71.18,1760267875.171875
-75.62,1760267875.1875
-76.2,1760267875.203125
-71.55,1760267875.21875
-61.31,1760267875.234375
-46.43,1760267875.25
-28.86,1760267875.265625
-11.04,1760267875.28125
4.89,1760267875.296875
17.54,1760267875.3125
26.51,1760267875.328125
32.14,1760267875.34375
35.22,1760267875.359375
36.59,1760267875.375
36.9,1760267875.390625
36.59,1760267875.40625
35.91,1760267875.421875
35.01,1760267875.4375
33.99,1760267875.453125
32.92,1760267875.46875
31.84,1760267875.484375
30.76,1760267875.5
29.72,1760267875.515625
28.75,1760267875.53125
27.96,1760267875.546875
27.54,1760267875.5625
27.65,1760267875.578125
28.39,1760267875.59375
29.63,1760267875.609375
31.04,1760267875.625
32.09,1760267875.640625
32.26,1760267875.65625
31.2,1760267875.671875
28.91,1760267875.6875
25.7,1760267875.703125
22.1,1760267875.71875
18.65,1760267875.734375
15.67,1760267875.75
13.2,1760267875.765625
10.99,1760267875.78125
8.7,1760267875.796875
6.04,1760267875.8125
2.92,1760267875.828125
-0.52,1760267875.84375
-3.99,1760267875.859375
-7.19,1760267875.875
-9.93,1760267875.890625
-12.17,1760267875.90625
-14.04,1760267875.921875
-15.84,1760267875.9375
-17.91,1760267875.953125
-20.51,1760267875.96875
-23.74,1760267875.984375
-27.47,1760267876.0
-31.35,1760267876.015625
-34.99,1760267876.03125
-38.07,1760267876.046875
-40.55,1760267876.0625
-42.72,1760267876.078125
-45.15,1760267876.09375
-48.46,1760267876.109375
-53.1,1760267876.125
-59.08,1760267876.140625
-65.74,1760267876.15625
-71.77,1760267876.171875
-75.4,1760267876.1875
-74.87,1760267876.203125
-69.01,1760267876.21875
-57.72,1760267876.234375
-42.12,1760267876.25
-24.25,1760267876.265625
-6.5,1760267876.28125
9.14,1760267876.296875
21.47,1760267876.3125
30.23,1760267876.328125
35.78,1760267876.34375
38.81,1760267876.359375
39.97,1760267876.375
39.8,1760267876.390625
38.76,1760267876.40625
37.24,1760267876.421875
35.58,1760267876.4375
34.07,1760267876.453125
32.86,1760267876.46875
31.98,1760267876.484375
31.39,1760267876.5
31.05,1760267876.515625
30.9,1760267876.53125
30.93,1760267876.546875
31.1,1760267876.5625
31.37,1760267876.578125
31.67,1760267876.59375
31.93,1760267876.609375
32.04,1760267876.625
31.86,1760267876.640625
31.17,1760267876.65625
29.74,1760267876.671875
27.4,1760267876.6875
24.11,1760267876.703125
20.02,1760267876.71875
15.43,1760267876.734375
10.78,1760267876.75
6.46,1760267876.765625
2.71,1760267876.78125
-0.42,1760267876.796875
-3.14,1760267876.8125
-5.83,1760267876.828125
-8.87,1760267876.84375
-12.48,1760267876.859375
-16.62,1760267876.875
-20.97,1760267876.890625
-25.12,1760267876.90625
-28.67,1760267876.921875
-31.46,1760267876.9375
-33.6,1760267876.953125
-35.46,1760267876.96875
-37.53,1760267876.984375
-40.37,1760267877.0
-44.43,1760267877.015625
-49.9,1760267877.03125
-56.53,1760267877.046875
-63.41,1760267877.0625
-69.02,1760267877.078125
-71.51,1760267877.09375
-69.19,1760267877.109375
-61.19,1760267877.125
-47.88,1760267877.140625
-30.87,1760267877.15625
-12.53,1760267877.171875
4.75,1760267877.1875
19.2,1760267877.203125
29.97,1760267877.21875
37.11,1760267877.234375
41.15,1760267877.25
42.83,1760267877.265625
42.81,1760267877.28125
41.64,1760267877.296875
39.81,1760267877.3125
37.77,1760267877.328125
35.86,1760267877.34375
34.32,1760267877.359375
33.17,1760267877.375
32.3,1760267877.390625
31.6,1760267877.40625
31.02,1760267877.421875
30.65,1760267877.4375
30.62,1760267877.453125
31.0,1760267877.46875
31.73,1760267877.484375
32.55,1760267877.5
33.15,1760267877.515625
33.18,1760267877.53125
32.41,1760267877.546875
30.75,1760267877.5625
28.22,1760267877.578125
24.88,1760267877.59375
20.87,1760267877.609375
16.35,1760267877.625
11.56,1760267877.640625
6.76,1760267877.65625
2.24,1760267877.671875
-1.74,1760267877.6875
-5.05,1760267877.703125
-7.72,1760267877.71875
-10.0,1760267877.734375
-12.27,1760267877.75
-14.95,1760267877.765625
-18.28,1760267877.78125
-22.26,1760267877.796875
-26.59,1760267877.8125
-30.85,1760267877.828125
-34.63,1760267877.84375
-37.73,1760267877.859375
-40.28,1760267877.875
-42.61,1760267877.890625
-45.21,1760267877.90625
-48.6,1760267877.921875
-53.23,1760267877.9375
-59.28,1760267877.953125
-66.52,1760267877.96875
-74.05,1760267877.984375
-80.25,1760267878.0
-83.08,1760267878.015625
-80.64,1760267878.03125
-71.89,1760267878.046875
-57.2,1760267878.0625
-38.29,1760267878.078125
-17.81,1760267878.09375
1.56,1760267878.109375
17.8,1760267878.125
29.98,1760267878.140625
38.17,1760267878.15625
43.08,1760267878.171875
45.6,1760267878.1875
46.56,1760267878.203125
46.55,1760267878.21875
46.02,1760267878.234375
45.25,1760267878.25
44.43,1760267878.265625
43.64,1760267878.28125
42.91,1760267878.296875
42.23,1760267878.3125
41.62,1760267878.328125
41.14,1760267878.34375
40.85,1760267878.359375
40.79,1760267878.375
40.94,1760267878.390625
41.22,1760267878.40625
41.47,1760267878.421875
41.49,1760267878.4375
41.04,1760267878.453125
39.91,1760267878.46875
37.97,1760267878.484375
35.24,1760267878.5
31.85,1760267878.515625
28.04,1760267878.53125
24.07,1760267878.546875
20.05,1760267878.5625
15.99,1760267878.578125
11.83,1760267878.59375
7.55,1760267878.609375
3.24,1760267878.625
-0.86,1760267878.640625
-4.52,1760267878.65625
-7.68,1760267878.671875
-10.48,1760267878.6875
-13.27,1760267878.703125
-16.41,1760267878.71875
-20.06,1760267878.734375
-24.16,1760267878.75
-28.42,1760267878.765625
-32.48,1760267878.78125
-36.06,1760267878.796875
-39.08,1760267878.8125
-41.65,1760267878.828125
-44.12,1760267878.84375
-47.01,1760267878.859375
-50.91,1760267878.875
-56.32,1760267878.890625
-63.27,1760267878.90625
-71.1,1760267878.921875
-78.25,1760267878.9375
-82.58,1760267878.953125
-81.95,1760267878.96875
-74.99,1760267878.984375
-61.67,1760267879.0
-43.46,1760267879.015625
-22.82,1760267879.03125
-2.52,1760267879.046875
15.17,1760267879.0625
28.96,1760267879.078125
38.56,1760267879.09375
44.44,1760267879.109375
47.42,1760267879.125
48.39,1760267879.140625
48.14,1760267879.15625
47.27,1760267879.171875
46.25,1760267879.1875
45.32,1760267879.203125
44.54,1760267879.21875
43.81,1760267879.234375
42.99,1760267879.25
41.96,1760267879.265625
40.77,1760267879.28125
39.63,1760267879.296875
38.79,1760267879.3125
38.48,1760267879.328125
38.78,1760267879.34375
39.57,1760267879.359375
40.51,1760267879.375
41.15,1760267879.390625
41.03,1760267879.40625
39.8,1760267879.421875
37.34,1760267879.4375
33.81,1760267879.453125
29.63,1760267879.46875
25.31,1760267879.484375
21.3,1760267879.5
17.83,1760267879.515625
14.86,1760267879.53125
12.12,1760267879.546875
9.26,1760267879.5625
6.01,1760267879.578125
2.31,1760267879.59375
-1.64,1760267879.609375
-5.51,1760267879.625
-8.94,1760267879.640625
-11.81,1760267879.65625
-14.22,1760267879.671875
-16.48,1760267879.6875
-19.01,1760267879.703125
-22.08,1760267879.71875
-25.77,1760267879.734375
-29.86,1760267879.75
-33.95,1760267879.765625
-37.64,1760267879.78125
-40.67,1760267879.796875
-43.1,1760267879.8125
-45.34,1760267879.828125
-48.03,1760267879.84375
-51.89,1760267879.859375
-57.39,1760267879.875
-64.43,1760267879.890625
-72.09,1760267879.90625
-78.62,1760267879.921875
-81.81,1760267879.9375
-79.66,1760267879.953125
-71.08,1760267879.96875
-56.44,1760267879.984375
-37.56,1760267880.0
-17.15,1760267880.015625
1.98,1760267880.03125
17.74,1760267880.046875
29.2,1760267880.0625
36.47,1760267880.078125
40.41,1760267880.09375
42.07,1760267880.109375
42.34,1760267880.125
41.89,1760267880.140625
41.09,1760267880.15625
40.13,1760267880.171875
39.14,1760267880.1875
38.18,1760267880.203125
37.31,1760267880.21875
36.57,1760267880.234375
35.98,1760267880.25
35.54,1760267880.265625
35.18,1760267880.28125
34.85,1760267880.296875
34.56,1760267880.3125
34.33,1760267880.328125
34.27,1760267880.34375
34.38,1760267880.359375
34.48,1760267880.375
34.23,1760267880.390625
33.21,1760267880.40625
31.13,1760267880.421875
27.95,1760267880.4375
23.95,1760267880.453125
19.57,1760267880.46875
15.25,1760267880.484375
11.28,1760267880.5
7.74,1760267880.515625
4.56,1760267880.53125
1.61,1760267880.546875
-1.25,1760267880.5625
-4.15,1760267880.578125
-7.2,1760267880.59375
-10.47,1760267880.609375
-13.97,1760267880.625
-17.6,1760267880.640625
-21.16,1760267880.65625
-24.39,1760267880.671875
-27.09,1760267880.6875
-29.21,1760267880.703125
-30.94,1760267880.71875
-32.69,1760267880.734375
-35.07,1760267880.75
-38.66,1760267880.765625
-43.82,1760267880.78125
-50.4,1760267880.796875
-57.52,1760267880.8125
-63.62,1760267880.828125
-66.8,1760267880.84375
-65.32,1760267880.859375
-58.32,1760267880.875
-46.1,1760267880.890625
-30.17,1760267880.90625
-12.75,1760267880.921875
3.82,1760267880.9375
17.76,1760267880.953125
28.16,1760267880.96875
34.95,1760267880.984375
38.72,1760267881.0
40.26,1760267881.015625
40.36,1760267881.03125
39.6,1760267881.046875
38.31,1760267881.0625
36.66,1760267881.078125
34.76,1760267881.09375
32.73,1760267881.109375
30.73,1760267881.125
28.94,1760267881.140625
27.48,1760267881.15625
26.45,1760267881.171875
25.84,1760267881.1875
25.66,1760267881.203125
25.89,1760267881.21875
26.44,1760267881.234375
27.12,1760267881.25
27.6,1760267881.265625
27.43,1760267881.28125
26.19,1760267881.296875
23.65,1760267881.3125
19.92,1760267881.328125
15.4,1760267881.34375
10.66,1760267881.359375
6.22,1760267881.375
2.3,1760267881.390625
-1.19,1760267881.40625
-4.59,1760267881.421875
-8.28,1760267881.4375
-12.45,1760267881.453125
-17.04,1760267881.46875
-21.69,1760267881.484375
-25.94,1760267881.5
-29.44,1760267881.515625
-32.14,1760267881.53125
-34.35,1760267881.546875
-36.67,1760267881.5625
-39.84,1760267881.578125
-44.39,1760267881.59375
-50.36,1760267881.609375
-57.1,1760267881.625
-63.19,1760267881.640625
-66.83,1760267881.65625
-66.25,1760267881.671875
-60.39,1760267881.6875
-49.32,1760267881.703125
-34.28,1760267881.71875
-17.38,1760267881.734375
-0.94,1760267881.75
13.13,1760267881.765625
23.79,1760267881.78125
30.94,1760267881.796875
35.15,1760267881.8125
37.27,1760267881.828125
38.13,1760267881.84375
38.25,1760267881.859375
37.88,1760267881.875
37.08,1760267881.890625
35.84,1760267881.90625
34.2,1760267881.921875
32.32,1760267881.9375
30.45,1760267881.953125
28.79,1760267881.96875
27.47,1760267881.984375
26.43,1760267882.0
25.5,1760267882.015625
24.49,1760267882.03125
23.31,1760267882.046875
22.03,1760267882.0625
20.79,1760267882.078125
19.7,1760267882.09375
18.64,1760267882.109375
17.28,1760267882.125
15.21,1760267882.140625
12.07,1760267882.15625
7.8,1760267882.171875
2.64,1760267882.1875
-2.91,1760267882.203125
-8.31,1760267882.21875
-13.11,1760267882.234375
-17.14,1760267882.25
-20.45,1760267882.265625
-23.32,1760267882.28125
-26.16,1760267882.296875
-29.4,1760267882.3125
-33.5,1760267882.328125
-38.71,1760267882.34375
-44.95,1760267882.359375
-51.59,1760267882.375
-57.41,1760267882.390625
-60.8,1760267882.40625
-60.18,1760267882.421875
-54.58,1760267882.4375
-44.03,1760267882.453125
-29.64,1760267882.46875
-13.39,1760267882.484375
2.52,1760267882.5
16.21,1760267882.515625
26.64,1760267882.53125
33.64,1760267882.546875
37.75,1760267882.5625
39.78,1760267882.578125
40.53,1760267882.59375
40.52,1760267882.609375
39.96,1760267882.625
38.85,1760267882.640625
37.14,1760267882.65625
34.89,1760267882.671875
32.32,1760267882.6875
29.75,1760267882.703125
27.5,1760267882.71875
25.73,1760267882.734375
24.43,1760267882.75
23.4,1760267882.765625
22.43,1760267882.78125
21.33,1760267882.796875
20.1,1760267882.8125
18.79,1760267882.828125
17.46,1760267882.84375
16.09,1760267882.859375
14.48,1760267882.875
12.33,1760267882.890625
9.38,1760267882.90625
5.47,1760267882.921875
0.69,1760267882.9375
-4.65,1760267882.953125
-10.1,1760267882.96875
-15.2,1760267882.984375
-19.58,1760267883.0
-23.17,1760267883.015625
-26.07,1760267883.03125
-28.62,1760267883.046875
-31.29,1760267883.0625
-34.58,1760267883.078125
-38.91,1760267883.09375
-44.45,1760267883.109375
-50.83,1760267883.125
-57.08,1760267883.140625
-61.62,1760267883.15625
-62.69,1760267883.171875
-58.97,1760267883.1875
-50.05,1760267883.203125
-36.77,1760267883.21875
-20.98,1760267883.234375
-4.95,1760267883.25
9.28,1760267883.265625
20.48,1760267883.28125
28.32,1760267883.296875
33.16,1760267883.3125
35.69,1760267883.328125
36.61,1760267883.34375
36.37,1760267883.359375
35.27,1760267883.375
33.48,1760267883.390625
31.21,1760267883.40625
28.71,1760267883.421875
26.26,1760267883.4375
24.15,1760267883.453125
22.55,1760267883.46875
21.55,1760267883.484375
21.06,1760267883.5
20.94,1760267883.515625
20.99,1760267883.53125
21.02,1760267883.546875
20.86,1760267883.5625
20.36,1760267883.578125
19.41,1760267883.59375
17.9,1760267883.609375
15.81,1760267883.625
13.15,1760267883.640625
10.0,1760267883.65625
6.45,1760267883.671875
2.59,1760267883.6875
-1.51,1760267883.703125
-5.75,1760267883.71875
-10.05,1760267883.734375
-14.25,1760267883.75
-18.24,1760267883.765625
-21.91,1760267883.78125
-25.2,1760267883.796875
-28.13,1760267883.8125
-30.83,1760267883.828125
-33.57,1760267883.84375
-36.71,1760267883.859375
-40.63,1760267883.875
-45.47,1760267883.890625
-50.9,1760267883.90625
-55.94,1760267883.921875
-59.11,1760267883.9375
-58.77,1760267883.953125
-53.77,1760267883.96875
-43.86,1760267883.984375
-30.01,1760267884.0
-14.11,1760267884.015625
1.62,1760267884.03125
15.24,1760267884.046875
25.62,1760267884.0625
32.52,1760267884.078125
36.36,1760267884.09375
37.88,1760267884.109375
37.75,1760267884.125
36.47,1760267884.140625
34.37,1760267884.15625
31.73,1760267884.171875
28.89,1760267884.1875
26.2,1760267884.203125
24.0,1760267884.21875
22.47,1760267884.234375
21.65,1760267884.25
21.44,1760267884.265625
21.71,1760267884.28125
22.3,1760267884.296875
23.05,1760267884.3125
23.73,1760267884.328125
24.06,1760267884.34375
23.7,1760267884.359375
22.33,1760267884.375
19.83,1760267884.390625
16.32,1760267884.40625
12.16,1760267884.421875
7.83,1760267884.4375
3.72,1760267884.453125
-0.02,1760267884.46875
-3.52,1760267884.484375
-7.07,1760267884.5
-10.98,1760267884.515625
-15.34,1760267884.53125
-20.04,1760267884.546875
-24.72,1760267884.5625
-28.98,1760267884.578125
-32.52,1760267884.59375
-35.27,1760267884.609375
-37.48,1760267884.625
-39.66,1760267884.640625
-42.46,1760267884.65625
-46.43,1760267884.671875
-51.76,1760267884.6875
-58.04,1760267884.703125
-64.11,1760267884.71875
-68.23,1760267884.734375
-68.55,1760267884.75
-63.7,1760267884.765625
-53.37,1760267884.78125
-38.51,1760267884.796875
-21.12,1760267884.8125
-3.6,1760267884.828125
11.96,1760267884.84375
24.27,1760267884.859375
33.01,1760267884.875
38.62,1760267884.890625
41.85,1760267884.90625
43.46,1760267884.921875
43.97,1760267884.9375
43.7,1760267884.953125
42.87,1760267884.96875
41.65,1760267884.984375
40.24,1760267885.0
38.8,1760267885.015625
37.44,1760267885.03125
36.25,1760267885.046875
35.26,1760267885.0625
34.51,1760267885.078125
34.06,1760267885.09375
33.92,1760267885.109375
34.04,1760267885.125
34.29,1760267885.140625
34.48,1760267885.15625
34.34,1760267885.171875
33.59,1760267885.1875
31.99,1760267885.203125
29.47,1760267885.21875
26.13,1760267885.234375
22.23,1760267885.25
18.12,1760267885.265625
14.1,1760267885.28125
10.29,1760267885.296875
6.66,1760267885.3125
3.09,1760267885.328125
-0.51,1760267885.34375
-4.1,1760267885.359375
-7.5,1760267885.375
-10.5,1760267885.390625
-13.02,1760267885.40625
-15.19,1760267885.421875
-17.35,1760267885.4375
-19.86,1760267885.453125
-22.94,1760267885.46875
-26.53,1760267885.484375
-30.33,1760267885.5
-33.96,1760267885.515625
-37.11,1760267885.53125
-39.68,1760267885.546875
-41.87,1760267885.5625
-44.09,1760267885.578125
-46.87,1760267885.59375
-50.75,1760267885.609375
-56.06,1760267885.625
-62.71,1760267885.640625
-69.96,1760267885.65625
-76.34,1760267885.671875
-79.83,1760267885.6875
-78.46,1760267885.703125
-71.0,1760267885.71875
-57.55,1760267885.734375
-39.64,1760267885.75
-19.83,1760267885.765625
-0.84,1760267885.78125
15.22,1760267885.796875
27.35,1760267885.8125
35.6,1760267885.828125
40.65,1760267885.84375
43.39,1760267885.859375
44.54,1760267885.875
44.58,1760267885.890625
43.87,1760267885.90625
42.72,1760267885.921875
41.38,1760267885.9375
40.02,1760267885.953125
38.7,1760267885.96875
37.39,1760267885.984375
36.07,1760267886.0
34.77,1760267886.015625
33.62,1760267886.03125
32.8,1760267886.046875
32.44,1760267886.0625
32.62,1760267886.078125
33.24,1760267886.09375
34.01,1760267886.109375
34.53,1760267886.125
34.35,1760267886.140625
33.13,1760267886.15625
30.74,1760267886.171875
27.38,1760267886.1875
23.46,1760267886.203125
19.47,1760267886.21875
15.75,1760267886.234375
12.4,1760267886.25
9.27,1760267886.265625
6.05,1760267886.28125
2.57,1760267886.296875
-1.16,1760267886.3125
-4.86,1760267886.328125
-8.17,1760267886.34375
-10.86,1760267886.359375
-12.94,1760267886.375
-14.72,1760267886.390625
-16.67,1760267886.40625
-19.17,1760267886.421875
-22.35,1760267886.4375
-26.02,1760267886.453125
-29.74,1760267886.46875
-33.07,1760267886.484375
-35.72,1760267886.5
-37.75,1760267886.515625
-39.53,1760267886.53125
-41.65,1760267886.546875
-44.73,1760267886.5625
-49.23,1760267886.578125
-55.17,1760267886.59375
-61.99,1760267886.609375
-68.41,1760267886.625
-72.6,1760267886.640625
-72.65,1760267886.65625
-67.15,1760267886.671875
-55.76,1760267886.6875
-39.5,1760267886.703125
-20.51,1760267886.71875
-1.44,1760267886.734375
15.34,1760267886.75
28.35,1760267886.765625
37.16,1760267886.78125
42.19,1760267886.796875
44.29,1760267886.8125
44.31,1760267886.828125
42.91,1760267886.84375
40.58,1760267886.859375
37.74,1760267886.875
34.78,1760267886.890625
32.1,1760267886.90625
30.01,1760267886.921875
28.7,1760267886.9375
28.2,1760267886.953125
28.37,1760267886.96875
28.99,1760267886.984375
29.79,1760267887.0
30.53,1760267887.015625
31.06,1760267887.03125
31.3,1760267887.046875
31.24,1760267887.0625
30.87,1760267887.078125
30.13,1760267887.09375
28.85,1760267887.109375
26.85,1760267887.125
23.96,1760267887.140625
20.11,1760267887.15625
15.45,1760267887.171875
10.34,1760267887.1875
5.22,1760267887.203125
0.55,1760267887.21875
-3.37,1760267887.234375
-6.48,1760267887.25
-8.97,1760267887.265625
-11.2,1760267887.28125
-13.56,1760267887.296875
-16.33,1760267887.3125
-19.61,1760267887.328125
-23.31,1760267887.34375
-27.21,1760267887.359375
-31.04,1760267887.375
-34.57,1760267887.390625
-37.69,1760267887.40625
-40.42,1760267887.421875
-42.94,1760267887.4375
-45.63,1760267887.453125
-48.99,1760267887.46875
-53.46,1760267887.484375
-59.23,1760267887.5
-65.88,1760267887.515625
-72.28,1760267887.53125
-76.68,1760267887.546875
-77.11,1760267887.5625
-72.07,1760267887.578125
-61.09,1760267887.59375
-45.03,1760267887.609375
-25.92,1760267887.625
-6.34,1760267887.640625
11.31,1760267887.65625
25.41,1760267887.671875
35.37,1760267887.6875
41.48,1760267887.703125
44.56,1760267887.71875
45.55,1760267887.734375
45.26,1760267887.75
44.24,1760267887.765625
42.85,1760267887.78125
41.29,1760267887.796875
39.67,1760267887.8125
38.1,1760267887.828125
36.67,1760267887.84375
35.44,1760267887.859375
34.48,1760267887.875
33.83,1760267887.890625
33.53,1760267887.90625
33.6,1760267887.921875
34.01,1760267887.9375
34.65,1760267887.953125
35.33,1760267887.96875
35.76,1760267887.984375
35.61,1760267888.0
34.62,1760267888.015625
32.66,1760267888.03125
29.83,1760267888.046875
26.39,1760267888.0625
22.65,1760267888.078125
18.86,1760267888.09375
15.13,1760267888.109375
11.41,1760267888.125
7.59,1760267888.140625
3.61,1760267888.15625
-0.49,1760267888.171875
-4.49,1760267888.1875
-8.11,1760267888.203125
-11.15,1760267888.21875
-13.61,1760267888.234375
-15.73,1760267888.25
-17.95,1760267888.265625
-20.71,1760267888.28125
-24.22,1760267888.296875
-28.39,1760267888.3125
-32.81,1760267888.328125
-36.95,1760267888.34375
-40.43,1760267888.359375
-43.13,1760267888.375
-45.34,1760267888.390625
-47.67,1760267888.40625
-50.86,1760267888.421875
-55.5,1760267888.4375
-61.75,1760267888.453125
-69.07,1760267888.46875
-76.12,1760267888.484375
-80.96,1760267888.5
-81.48,1760267888.515625
-76.15,1760267888.53125
-64.55,1760267888.546875
-47.71,1760267888.5625
-27.82,1760267888.578125
-7.61,1760267888.59375
10.45,1760267888.609375
24.79,1760267888.625
34.89,1760267888.640625
41.13,1760267888.65625
44.36,1760267888.671875
45.47,1760267888.6875
45.13,1760267888.703125
43.84,1760267888.71875
41.94,1760267888.734375
39.74,1760267888.75
37.55,1760267888.765625
35.63,1760267888.78125
34.19,1760267888.796875
33.3,1760267888.8125
32.91,1760267888.828125
32.91,1760267888.84375
33.13,1760267888.859375
33.42,1760267888.875
33.71,1760267888.890625
33.91,1760267888.90625
34.0,1760267888.921875
33.92,1760267888.9375
33.57,1760267888.953125
32.75,1760267888.96875
31.24,1760267888.984375
28.83,1760267889.0
25.41,1760267889.015625
21.07,1760267889.03125
16.08,1760267889.046875
10.89,1760267889.0625
5.98,1760267889.078125
1.7,1760267889.09375
-1.82,1760267889.109375
-4.71,1760267889.125
-7.34,1760267889.140625
-10.11,1760267889.15625
-13.32,1760267889.171875
-17.07,1760267889.1875
-21.18,1760267889.203125
-25.31,1760267889.21875
-29.03,1760267889.234375
-32.05,1760267889.25
-34.3,1760267889.265625
-36.03,1760267889.28125
-37.8,1760267889.296875
-40.35,1760267889.3125
-44.39,1760267889.328125
-50.24,1760267889.34375
-57.6,1760267889.359375
-65.27,1760267889.375
-71.36,1760267889.390625
-73.75,1760267889.40625
-70.74,1760267889.421875
-61.72,1760267889.4375
-47.4,1760267889.453125
-29.66,1760267889.46875
-10.91,1760267889.484375
6.53,1760267889.5
21.03,1760267889.515625
31.85,1760267889.53125
39.02,1760267889.546875
43.02,1760267889.5625
44.48,1760267889.578125
44.04,1760267889.59375
42.21,1760267889.609375
39.48,1760267889.625
36.3,1760267889.640625
33.14,1760267889.65625
30.43,1760267889.671875
28.48,1760267889.6875
27.42,1760267889.703125
27.13,1760267889.71875
27.33,1760267889.734375
27.68,1760267889.75
27.97,1760267889.765625
28.19,1760267889.78125
28.47,1760267889.796875
28.9,1760267889.8125
29.37,1760267889.828125
29.53,1760267889.84375
28.83,1760267889.859375
26.88,1760267889.875
23.56,1760267889.890625
19.15,1760267889.90625
14.22,1760267889.921875
9.4,1760267889.9375
5.13,1760267889.953125
1.52,1760267889.96875
-1.63,1760267889.984375
-4.72,1760267890.0
-8.09,1760267890.015625
-11.92,1760267890.03125
-16.12,1760267890.046875
-20.37,1760267890.0625
-24.28,1760267890.078125
-27.53,1760267890.09375
-30.04,1760267890.109375
-32.0,1760267890.125
-33.88,1760267890.140625
-36.36,1760267890.15625
-40.08,1760267890.171875
-45.37,1760267890.1875
-51.9,1760267890.203125
-58.59,1760267890.21875
-63.65,1760267890.234375
-65.09,1760267890.25
-61.36,1760267890.265625
-51.97,1760267890.28125
-37.71,1760267890.296875
-20.51,1760267890.3125
-2.78,1760267890.328125
13.28,1760267890.34375
26.19,1760267890.359375
35.36,1760267890.375
40.97,1760267890.390625
43.56,1760267890.40625
43.76,1760267890.421875
42.18,1760267890.4375
39.33,1760267890.453125
35.75,1760267890.46875
32.01,1760267890.484375
28.64,1760267890.5
26.14,1760267890.515625
24.78,1760267890.53125
24.59,1760267890.546875
25.33,1760267890.5625
26.61,1760267890.578125
27.98,1760267890.59375
29.09,1760267890.609375
29.79,1760267890.625
30.11,1760267890.640625
30.13,1760267890.65625
29.91,1760267890.671875
29.33,1760267890.6875
28.15,1760267890.703125
26.11,1760267890.71875
23.06,1760267890.734375
19.05,1760267890.75
14.34,1760267890.765625
9.32,1760267890.78125
4.38,1760267890.796875
-0.14,1760267890.8125
-4.09,1760267890.828125
-7.48,1760267890.84375
-10.49,1760267890.859375
-13.41,1760267890.875
-16.52,1760267890.890625
-20.06,1760267890.90625
-24.02,1760267890.921875
-28.23,1760267890.9375
-32.32,1760267890.953125
-35.96,1760267890.96875
-38.9,1760267890.984375
-41.23,1760267891.0
-43.31,1760267891.015625
-45.75,1760267891.03125
-49.29,1760267891.046875
-54.49,1760267891.0625
-61.45,1760267891.078125
-69.48,1760267891.09375
-77.08,1760267891.109375
-82.11,1760267891.125
-82.44,1760267891.140625
-76.67,1760267891.15625
-64.63,1760267891.171875
-47.6,1760267891.1875
-27.93,1760267891.203125
-8.3,1760267891.21875
9.02,1760267891.234375
22.7,1760267891.25
32.42,1760267891.265625
38.7,1760267891.28125
42.46,1760267891.296875
44.68,1760267891.3125
46.11,1760267891.328125
47.21,1760267891.34375
48.12,1760267891.359375
48.79,1760267891.375
49.06,1760267891.390625
48.83,1760267891.40625
48.13,1760267891.421875
47.09,1760267891.4375
45.93,1760267891.453125
44.82,1760267891.46875
43.88,1760267891.484375
43.16,1760267891.5
42.66,1760267891.515625
42.38,1760267891.53125
42.21,1760267891.546875
41.96,1760267891.5625
41.33,1760267891.578125
39.95,1760267891.59375
37.59,1760267891.609375
34.23,1760267891.625
30.15,1760267891.640625
25.74,1760267891.65625
21.35,1760267891.671875
17.13,1760267891.6875
13.01,1760267891.703125
8.82,1760267891.71875
4.46,1760267891.734375
0.05,1760267891.75
-4.19,1760267891.765625
-8.03,1760267891.78125
-11.41,1760267891.796875
-14.49,1760267891.8125
-17.57,1760267891.828125
-20.91,1760267891.84375
-24.59,1760267891.859375
-28.48,1760267891.875
-32.31,1760267891.890625
-35.82,1760267891.90625
-38.93,1760267891.921875
-41.75,1760267891.9375
-44.6,1760267891.953125
-47.96,1760267891.96875
-52.28,1760267891.984375
-57.93,1760267892.0
-65.0,1760267892.015625
-73.02,1760267892.03125
-80.87,1760267892.046875
-86.79,1760267892.0625
-88.83,1760267892.078125
-85.37,1760267892.09375
-75.89,1760267892.109375
-61.2,1760267892.125
-43.36,1760267892.140625
-25.03,1760267892.15625
-8.64,1760267892.171875
4.26,1760267892.1875
13.23,1760267892.203125
18.75,1760267892.21875
21.76,1760267892.234375
23.26,1760267892.25
23.96,1760267892.265625
24.39,1760267892.28125
24.85,1760267892.296875
25.61,1760267892.3125
26.81,1760267892.328125
28.53,1760267892.34375
30.73,1760267892.359375
33.32,1760267892.375
36.25,1760267892.390625
39.5,1760267892.40625
43.09,1760267892.421875
46.95,1760267892.4375
50.92,1760267892.453125
54.7,1760267892.46875
57.92,1760267892.484375
60.19,1760267892.5
61.22,1760267892.515625
60.81,1760267892.53125
58.95,1760267892.546875
55.78,1760267892.5625
51.56,1760267892.578125
46.7,1760267892.59375
41.6,1760267892.609375
36.59,1760267892.625
31.79,1760267892.640625
27.12,1760267892.65625
22.4,1760267892.671875
17.55,1760267892.6875
12.65,1760267892.703125
7.97,1760267892.71875
3.88,1760267892.734375
0.57,1760267892.75
-2.08,1760267892.765625
-4.51,1760267892.78125
-7.27,1760267892.796875
-10.77,1760267892.8125
-15.03,1760267892.828125
-19.67,1760267892.84375
-24.08,1760267892.859375
-27.76,1760267892.875
-30.5,1760267892.890625
-32.59,1760267892.90625
-34.65,1760267892.921875
-37.48,1760267892.9375
-41.74,1760267892.953125
-47.64,1760267892.96875
-54.73,1760267892.984375
-61.81,1760267893.0
-67.08,1760267893.015625
-68.6,1760267893.03125
-64.89,1760267893.046875
-55.5,1760267893.0625
-41.27,1760267893.078125
-24.18,1760267893.09375
-6.68,1760267893.109375
9.02,1760267893.125
21.51,1760267893.140625
30.39,1760267893.15625
36.03,1760267893.171875
39.1,1760267893.1875
40.29,1760267893.203125
40.11,1760267893.21875
38.94,1760267893.234375
37.12,1760267893.25
35.02,1760267893.265625
32.99,1760267893.28125
31.3,1760267893.296875
30.06,1760267893.3125
29.26,1760267893.328125
28.84,1760267893.34375
28.75,1760267893.359375
28.95,1760267893.375
29.42,1760267893.390625
30.09,1760267893.40625
30.82,1760267893.421875
31.46,1760267893.4375
31.77,1760267893.453125
31.53,1760267893.46875
30.5,1760267893.484375
28.55,1760267893.5
25.67,1760267893.515625
22.05,1760267893.53125
18.01,1760267893.546875
13.91,1760267893.5625
10.06,1760267893.578125
6.61,1760267893.59375
3.5,1760267893.609375
0.6,1760267893.625
-2.24,1760267893.640625
-5.06,1760267893.65625
-7.78,1760267893.671875
-10.26,1760267893.6875
-12.41,1760267893.703125
-14.34,1760267893.71875
-16.33,1760267893.734375
-18.74,1760267893.75
-21.8,1760267893.765625
-25.47,1760267893.78125
-29.43,1760267893.796875
-33.16,1760267893.8125
-36.22,1760267893.828125
-38.46,1760267893.84375
-40.12,1760267893.859375
-41.83,1760267893.875
-44.31,1760267893.890625
-48.21,1760267893.90625
-53.76,1760267893.921875
-60.57,1760267893.9375
-67.55,1760267893.953125
-72.94,1760267893.96875
-74.79,1760267893.984375
-71.47,1760267894.0
-62.3,1760267894.015625
-47.91,1760267894.03125
-30.14,1760267894.046875
-11.52,1760267894.0625
5.47,1760267894.078125
19.13,1760267894.09375
28.8,1760267894.109375
34.82,1760267894.125
38.07,1760267894.140625
39.55,1760267894.15625
40.07,1760267894.171875
40.09,1760267894.1875
39.83,1760267894.203125
39.34,1760267894.21875
38.64,1760267894.234375
37.8,1760267894.25
36.89,1760267894.265625
35.97,1760267894.28125
35.09,1760267894.296875
34.22,1760267894.3125
33.33,1760267894.328125
32.45,1760267894.34375
31.66,1760267894.359375
31.12,1760267894.375
30.96,1760267894.390625
31.18,1760267894.40625
31.53,1760267894.421875
31.55,1760267894.4375
30.76,1760267894.453125
28.79,1760267894.46875
25.66,1760267894.484375
21.71,1760267894.5
17.55,1760267894.515625
13.77,1760267894.53125
10.71,1760267894.546875
8.32,1760267894.5625
6.21,1760267894.578125
3.89,1760267894.59375
1.01,1760267894.609375
-2.46,1760267894.625
-6.23,1760267894.640625
-9.8,1760267894.65625
-12.72,1760267894.671875
-14.81,1760267894.6875
-16.26,1760267894.703125
-17.55,1760267894.71875
-19.21,1760267894.734375
-21.64,1760267894.75
-24.9,1760267894.765625
-28.7,1760267894.78125
-32.58,1760267894.796875
-36.1,1760267894.8125
-39.02,1760267894.828125
-41.41,1760267894.84375
-43.6,1760267894.859375
-46.12,1760267894.875
-49.53,1760267894.890625
-54.27,1760267894.90625
-60.42,1760267894.921875
-67.5,1760267894.9375
-74.31,1760267894.953125
-79.1,1760267894.96875
-79.96,1760267894.984375
-75.44,1760267895.0
-65.11,1760267895.015625
-49.82,1760267895.03125
-31.5,1760267895.046875
-12.6,1760267895.0625
4.64,1760267895.078125
18.73,1760267895.09375
29.16,1760267895.109375
36.2,1760267895.125
40.54,1760267895.140625
42.92,1760267895.15625
43.94,1760267895.171875
44.03,1760267895.1875
43.48,1760267895.203125
42.54,1760267895.21875
41.41,1760267895.234375
40.19,1760267895.25
38.89,1760267895.265625
37.47,1760267895.28125
35.96,1760267895.296875
34.47,1760267895.3125
33.19,1760267895.328125
32.31,1760267895.34375
31.93,1760267895.359375
31.95,1760267895.375
32.14,1760267895.390625
32.16,1760267895.40625
31.69,1760267895.421875
30.53,1760267895.4375
28.61,1760267895.453125
26.03,1760267895.46875
22.99,1760267895.484375
19.72,1760267895.5
16.43,1760267895.515625
13.17,1760267895.53125
9.91,1760267895.546875
6.51,1760267895.5625
2.87,1760267895.578125
-0.95,1760267895.59375
-4.76,1760267895.609375
-8.3,1760267895.625
-11.38,1760267895.640625
-14.03,1760267895.65625
-16.42,1760267895.671875
-18.83,1760267895.6875
-21.5,1760267895.703125
-24.49,1760267895.71875
-27.68,1760267895.734375
-30.85,1760267895.75
-33.73,1760267895.765625
-36.2,1760267895.78125
-38.34,1760267895.796875
-40.44,1760267895.8125
-43.04,1760267895.828125
-46.71,1760267895.84375
-51.86,1760267895.859375
-58.35,1760267895.875
-65.36,1760267895.890625
-71.33,1760267895.90625
-74.31,1760267895.921875
-72.56,1760267895.9375
-65.17,1760267895.953125
-52.43,1760267895.96875
-35.86,1760267895.984375
-17.77,1760267896.0
-0.5,1760267896.015625
14.11,1760267896.03125
25.11,1760267896.046875
32.48,1760267896.0625
36.76,1760267896.078125
38.76,1760267896.09375
39.22,1760267896.109375
38.7,1760267896.125
37.54,1760267896.140625
35.94,1760267896.15625
34.05,1760267896.171875
32.01,1760267896.1875
30.05,1760267896.203125
28.4,1760267896.21875
27.3,1760267896.234375
26.83,1760267896.25
26.92,1760267896.265625
27.35,1760267896.28125
27.88,1760267896.296875
28.35,1760267896.3125
28.72,1760267896.328125
28.97,1760267896.34375
28.98,1760267896.359375
28.41,1760267896.375
26.84,1760267896.390625
23.94,1760267896.40625
19.68,1760267896.421875
14.47,1760267896.4375
9.03,1760267896.453125
4.12,1760267896.46875
0.17,1760267896.484375
-2.86,1760267896.5
-5.47,1760267896.515625
-8.36,1760267896.53125
-12.09,1760267896.546875
-16.77,1760267896.5625
-22.07,1760267896.578125
-27.34,1760267896.59375
-31.87,1760267896.609375
-35.2,1760267896.625
-37.35,1760267896.640625
-38.74,1760267896.65625
-40.12,1760267896.671875
-42.32,1760267896.6875
-45.98,1760267896.703125
-51.37,1760267896.71875
-58.13,1760267896.734375
-65.21,1760267896.75
-70.94,1760267896.765625
-73.38,1760267896.78125
-70.86,1760267896.796875
-62.64,1760267896.8125
-49.19,1760267896.828125
-32.18,1760267896.84375
-13.97,1760267896.859375
3.13,1760267896.875
17.44,1760267896.890625
28.25,1760267896.90625
35.64,1760267896.921875
40.24,1760267896.9375
42.77,1760267896.953125
43.88,1760267896.96875
44.04,1760267896.984375
43.62,1760267897.0
42.85,1760267897.015625
41.88,1760267897.03125
40.73,1760267897.046875
39.38,1760267897.0625
37.83,1760267897.078125
36.23,1760267897.09375
34.83,1760267897.109375
33.88,1760267897.125
33.57,1760267897.140625
33.86,1760267897.15625
34.55,1760267897.171875
35.3,1760267897.1875
35.72,1760267897.203125
35.51,1760267897.21875
34.45,1760267897.234375
32.46,1760267897.25
29.64,1760267897.265625
26.19,1760267897.28125
22.42,1760267897.296875
18.57,1760267897.3125
14.75,1760267897.328125
10.92,1760267897.34375
6.96,1760267897.359375
2.82,1760267897.375
-1.41,1760267897.390625
-5.47,1760267897.40625
-9.09,1760267897.421875
-12.13,1760267897.4375
-14.71,1760267897.453125
-17.21,1760267897.46875
-20.05,1760267897.484375
-23.53,1760267897.5
-27.7,1760267897.515625
-32.27,1760267897.53125
-36.81,1760267897.546875
-40.89,1760267897.5625
-44.29,1760267897.578125
-47.1,1760267897.59375
-49.7,1760267897.609375
-52.67,1760267897.625
-56.67,1760267897.640625
-62.19,1760267897.65625
-69.24,1760267897.671875
-77.17,1760267897.6875
-84.52,1760267897.703125
-89.21,1760267897.71875
-89.12,1760267897.734375
-82.75,1760267897.75
-69.89,1760267897.765625
-51.82,1760267897.78125
-30.99,1760267897.796875
-10.25,1760267897.8125
8.04,1760267897.828125
22.52,1760267897.84375
33.02,1760267897.859375
40.14,1760267897.875
44.77,1760267897.890625
47.72,1760267897.90625
49.52,1760267897.921875
50.47,1760267897.9375
50.78,1760267897.953125
50.62,1760267897.96875
50.09,1760267897.984375
49.24,1760267898.0
48.08,1760267898.015625
46.68,1760267898.03125
45.2,1760267898.046875
43.88,1760267898.0625
42.91,1760267898.078125
42.39,1760267898.09375
42.22,1760267898.109375
42.18,1760267898.125
42.02,1760267898.140625
41.49,1760267898.15625
40.44,1760267898.171875
38.75,1760267898.1875
36.37,1760267898.203125
33.31,1760267898.21875
29.67,1760267898.234375
25.62,1760267898.25
21.37,1760267898.265625
17.1,1760267898.28125
12.97,1760267898.296875
9.05,1760267898.3125
5.35,1760267898.328125
1.85,1760267898.34375
-1.56,1760267898.359375
-5.03,1760267898.375
-8.75,1760267898.390625
-12.86,1760267898.40625
-17.34,1760267898.421875
-22.01,1760267898.4375
-26.55,1760267898.453125
-30.64,1760267898.46875
-34.05,1760267898.484375
-36.79,1760267898.5
-39.1,1760267898.515625
-41.42,1760267898.53125
-44.33,1760267898.546875
-48.4,1760267898.5625
-53.97,1760267898.578125
-60.95,1760267898.59375
-68.47,1760267898.609375
-74.95,1760267898.625
-78.33,1760267898.640625
-76.68,1760267898.65625
-68.94,1760267898.671875
-55.34,1760267898.6875
-37.45,1760267898.703125
-17.71,1760267898.71875
1.31,1760267898.734375
17.61,1760267898.75
30.16,1760267898.765625
38.84,1760267898.78125
44.2,1760267898.796875
47.0,1760267898.8125
47.98,1760267898.828125
47.7,1760267898.84375
46.57,1760267898.859375
44.91,1760267898.875
42.99,1760267898.890625
41.09,1760267898.90625
39.41,1760267898.921875
38.09,1760267898.9375
37.12,1760267898.953125
36.42,1760267898.96875
35.86,1760267898.984375
35.32,1760267899.0
34.79,1760267899.015625
34.35,1760267899.03125
34.08,1760267899.046875
33.98,1760267899.0625
33.84,1760267899.078125
33.29,1760267899.09375
31.94,1760267899.109375
29.5,1760267899.125
25.92,1760267899.140625
21.45,1760267899.15625
16.5,1760267899.171875
11.57,1760267899.1875
7.04,1760267899.203125
3.13,1760267899.21875
-0.21,1760267899.234375
-3.23,1760267899.25
-6.3,1760267899.265625
-9.73,1760267899.28125
-13.69,1760267899.296875
-18.07,1760267899.3125
-22.51,1760267899.328125
-26.52,1760267899.34375
-29.72,1760267899.359375
-32.02,1760267899.375
-33.67,1760267899.390625
-35.24,1760267899.40625
-37.45,1760267899.421875
-40.98,1760267899.4375
-46.22,1760267899.453125
-53.05,1760267899.46875
-60.67,1760267899.484375
-67.53,1760267899.5
-71.64,1760267899.515625
-71.03,1760267899.53125
-64.49,1760267899.546875
-52.04,1760267899.5625
-35.1,1760267899.578125
-16.05,1760267899.59375
2.49,1760267899.609375
18.46,1760267899.625
30.74,1760267899.640625
39.21,1760267899.65625
44.41,1760267899.671875
47.11,1760267899.6875
48.01,1760267899.703125
47.63,1760267899.71875
46.37,1760267899.734375
44.55,1760267899.75
42.46,1760267899.765625
40.34,1760267899.78125
38.35,1760267899.796875
36.59,1760267899.8125
35.11,1760267899.828125
33.98,1760267899.84375
33.3,1760267899.859375
33.1,1760267899.875
33.39,1760267899.890625
34.04,1760267899.90625
34.83,1760267899.921875
35.44,1760267899.9375
35.5,1760267899.953125
34.72,1760267899.96875
32.9,1760267899.984375
30.05,1760267900.0
26.4,1760267900.015625
22.33,1760267900.03125
18.26,1760267900.046875
14.5,1760267900.0625
11.15,1760267900.078125
8.11,1760267900.09375
5.09,1760267900.109375
1.81,1760267900.125
-1.83,1760267900.140625
-5.74,1760267900.15625
-9.58,1760267900.171875
-12.99,1760267900.1875
-15.74,1760267900.203125
-17.86,1760267900.21875
-19.66,1760267900.234375
-21.6,1760267900.25
-24.11,1760267900.265625
-27.4,1760267900.28125
-31.34,1760267900.296875
-35.59,1760267900.3125
-39.64,1760267900.328125
-43.1,1760267900.34375
-45.87,1760267900.359375
-48.22,1760267900.375
-50.71,1760267900.390625
-54.08,1760267900.40625
-58.92,1760267900.421875
-65.38,1760267900.4375
-72.83,1760267900.453125
-79.81,1760267900.46875
-84.26,1760267900.484375
-84.05,1760267900.5
-77.73,1760267900.515625
-65.1,1760267900.53125
-47.45,1760267900.546875
-27.16,1760267900.5625
-7.0,1760267900.578125
10.65,1760267900.59375
24.43,1760267900.609375
34.03,1760267900.625
39.99,1760267900.640625
43.24,1760267900.65625
44.75,1760267900.671875
45.28,1760267900.6875
45.34,1760267900.703125
45.24,1760267900.71875
45.09,1760267900.734375
44.9,1760267900.75
44.55,1760267900.765625
43.89,1760267900.78125
42.8,1760267900.796875
41.3,1760267900.8125
39.5,1760267900.828125
37.68,1760267900.84375
36.16,1760267900.859375
35.2,1760267900.875
34.88,1760267900.890625
35.02,1760267900.90625
35.21,1760267900.921875
34.96,1760267900.9375
33.92,1760267900.953125
31.98,1760267900.96875
29.29,1760267900.984375
26.11,1760267901.0
22.68,1760267901.015625
19.06,1760267901.03125
15.22,1760267901.046875
11.15,1760267901.0625
6.93,1760267901.078125
2.81,1760267901.09375
-0.91,1760267901.109375
-4.07,1760267901.125
-6.73,1760267901.140625
-9.18,1760267901.15625
-11.81,1760267901.171875
-14.94,1760267901.1875
-18.64,1760267901.203125
-22.71,1760267901.21875
-26.79,1760267901.234375
-30.5,1760267901.25
-33.56,1760267901.265625
-35.95,1760267901.28125
-37.87,1760267901.296875
-39.75,1760267901.3125
-42.13,1760267901.328125
-45.6,1760267901.34375
-50.55,1760267901.359375
-56.91,1760267901.375
-63.89,1760267901.390625
-69.98,1760267901.40625
-73.18,1760267901.421875
-71.64,1760267901.4375
-64.31,1760267901.453125
-51.42,1760267901.46875
-34.51,1760267901.484375
-15.96,1760267901.5
1.76,1760267901.515625
16.8,1760267901.53125
28.19,1760267901.546875
35.9,1760267901.5625
40.52,1760267901.578125
42.82,1760267901.59375
43.54,1760267901.609375
43.23,1760267901.625
42.26,1760267901.640625
40.89,1760267901.65625
39.31,1760267901.671875
37.65,1760267901.6875
36.03,1760267901.703125
34.55,1760267901.71875
33.26,1760267901.734375
32.21,1760267901.75
31.47,1760267901.765625
31.05,1760267901.78125
30.96,1760267901.796875
31.1,1760267901.8125
31.3,1760267901.828125
31.31,1760267901.84375
30.87,1760267901.859375
29.82,1760267901.875
28.1,1760267901.890625
25.74,1760267901.90625
22.87,1760267901.921875
19.57,1760267901.9375
15.91,1760267901.953125
11.94,1760267901.96875
7.72,1760267901.984375
3.4,1760267902.0
-0.82,1760267902.015625
-4.7,1760267902.03125
-8.06,1760267902.046875
-10.81,1760267902.0625
-13.04,1760267902.078125
-14.94,1760267902.09375
-16.79,1760267902.109375
-18.83,1760267902.125
-21.18,1760267902.140625
-23.81,1760267902.15625
-26.58,1760267902.171875
-29.3,1760267902.1875
-31.84,1760267902.203125
-34.2,1760267902.21875
-36.52,1760267902.234375
