bvp,time
5.18,1637402255.25
5.84,1637402255.265625
6.52,1637402255.28125
7.27,1637402255.296875
7.98,1637402255.3125
8.41,1637402255.328125
8.3,1637402255.34375
7.47,1637402255.359375
5.92,1637402255.375
3.86,1637402255.390625
1.59,1637402255.40625
-0.54,1637402255.421875
-2.14,1637402255.4375
-2.99,1637402255.453125
-2.94,1637402255.46875
-2.05,1637402255.484375
-0.48,1637402255.5
1.47,1637402255.515625
3.51,1637402255.53125
5.38,1637402255.546875
6.95,1637402255.5625
8.24,1637402255.578125
9.36,1637402255.59375
10.43,1637402255.609375
11.54,1637402255.625
12.68,1637402255.640625
13.71,1637402255.65625
14.42,1637402255.671875
14.65,1637402255.6875
14.36,1637402255.703125
13.6,1637402255.71875
12.56,1637402255.734375
11.44,1637402255.75
10.31,1637402255.765625
9.1,1637402255.78125
7.61,1637402255.796875
5.64,1637402255.8125
3.07,1637402255.828125
-0.06,1637402255.84375
-3.58,1637402255.859375
-7.4,1637402255.875
-11.63,1637402255.890625
-16.63,1637402255.90625
-22.86,1637402255.921875
-30.68,1637402255.9375
-40.21,1637402255.953125
-51.31,1637402255.96875
-63.62,1637402255.984375
-76.63,1637402256.0
-89.7,1637402256.015625
-101.97,1637402256.03125
-112.33,1637402256.046875
-119.68,1637402256.0625
-123.2,1637402256.078125
-122.7,1637402256.09375
-118.72,1637402256.109375
-112.29,1637402256.125
-104.42,1637402256.140625
-95.83,1637402256.15625
-86.75,1637402256.171875
-77.26,1637402256.1875
-67.66,1637402256.203125
-58.64,1637402256.21875
-50.9,1637402256.234375
-44.69,1637402256.25
-39.14,1637402256.265625
-32.29,1637402256.28125
-21.66,1637402256.296875
-5.25,1637402256.3125
17.49,1637402256.328125
45.26,1637402256.34375
75.2,1637402256.359375
103.86,1637402256.375
128.22,1637402256.390625
146.54,1637402256.40625
158.73,1637402256.421875
166.03,1637402256.4375
170.39,1637402256.453125
173.68,1637402256.46875
177.11,1637402256.484375
180.94,1637402256.5
184.48,1637402256.515625
186.28,1637402256.53125
184.35,1637402256.546875
176.49,1637402256.5625
160.66,1637402256.578125
135.7,1637402256.59375
102.21,1637402256.609375
63.15,1637402256.625
23.69,1637402256.640625
-10.23,1637402256.65625
-34.08,1637402256.671875
-46.64,1637402256.6875
-50.43,1637402256.703125
-50.48,1637402256.71875
-51.89,1637402256.734375
-57.52,1637402256.75
-67.21,1637402256.765625
-78.55,1637402256.78125
-88.67,1637402256.796875
-95.83,1637402256.8125
-99.87,1637402256.828125
-101.6,1637402256.84375
-101.78,1637402256.859375
-100.46,1637402256.875
-97.16,1637402256.890625
-91.53,1637402256.90625
-83.92,1637402256.921875
-75.53,1637402256.9375
-67.84,1637402256.953125
-62.05,1637402256.96875
-58.54,1637402256.984375
-56.85,1637402257.0
-55.97,1637402257.015625
-54.78,1637402257.03125
-52.71,1637402257.046875
-49.86,1637402257.0625
-47.0,1637402257.078125
-45.11,1637402257.09375
-44.86,1637402257.109375
-46.16,1637402257.125
-48.07,1637402257.140625
-49.07,1637402257.15625
-47.68,1637402257.171875
-43.02,1637402257.1875
-35.18,1637402257.203125
-25.18,1637402257.21875
-14.63,1637402257.234375
-5.17,1637402257.25
1.99,1637402257.265625
6.31,1637402257.28125
7.95,1637402257.296875
7.59,1637402257.3125
6.16,1637402257.328125
4.53,1637402257.34375
3.43,1637402257.359375
3.26,1637402257.375
4.15,1637402257.390625
5.86,1637402257.40625
8.05,1637402257.421875
10.24,1637402257.4375
12.04,1637402257.453125
13.18,1637402257.46875
13.49,1637402257.484375
12.96,1637402257.5
11.68,1637402257.515625
9.86,1637402257.53125
7.78,1637402257.546875
5.76,1637402257.5625
4.01,1637402257.578125
2.61,1637402257.59375
1.49,1637402257.609375
0.48,1637402257.625
-0.51,1637402257.640625
-1.49,1637402257.65625
-2.33,1637402257.671875
-2.88,1637402257.6875
-3.06,1637402257.703125
-2.96,1637402257.71875
-2.74,1637402257.734375
-2.58,1637402257.75
-2.64,1637402257.765625
-2.99,1637402257.78125
-3.64,1637402257.796875
-4.61,1637402257.8125
-5.83,1637402257.828125
-7.23,1637402257.84375
-8.69,1637402257.859375
-10.02,1637402257.875
-11.03,1637402257.890625
-11.64,1637402257.90625
-11.86,1637402257.921875
-11.84,1637402257.9375
-11.77,1637402257.953125
-11.79,1637402257.96875
-11.94,1637402257.984375
-12.07,1637402258.0
-11.93,1637402258.015625
-11.31,1637402258.03125
-10.11,1637402258.046875
-8.42,1637402258.0625
-6.44,1637402258.078125
-4.37,1637402258.09375
-2.23,1637402258.109375
0.19,1637402258.125
3.21,1637402258.140625
7.08,1637402258.15625
11.74,1637402258.171875
16.9,1637402258.1875
22.1,1637402258.203125
27.01,1637402258.21875
31.53,1637402258.234375
35.83,1637402258.25
40.17,1637402258.265625
44.65,1637402258.28125
49.18,1637402258.296875
53.49,1637402258.3125
57.32,1637402258.328125
60.57,1637402258.34375
63.26,1637402258.359375
65.57,1637402258.375
67.56,1637402258.390625
69.14,1637402258.40625
70.11,1637402258.421875
70.25,1637402258.4375
69.41,1637402258.453125
67.59,1637402258.46875
64.92,1637402258.484375
61.52,1637402258.5
57.51,1637402258.515625
53.05,1637402258.53125
48.35,1637402258.546875
43.67,1637402258.5625
39.3,1637402258.578125
35.32,1637402258.59375
31.53,1637402258.609375
27.43,1637402258.625
22.37,1637402258.640625
15.81,1637402258.65625
7.57,1637402258.671875
-2.08,1637402258.6875
-12.46,1637402258.703125
-22.72,1637402258.71875
-32.08,1637402258.734375
-40.03,1637402258.75
-46.39,1637402258.765625
-51.37,1637402258.78125
-55.33,1637402258.796875
-58.69,1637402258.8125
-61.69,1637402258.828125
-64.36,1637402258.84375
-66.49,1637402258.859375
-67.73,1637402258.875
-67.84,1637402258.890625
-66.78,1637402258.90625
-64.8,1637402258.921875
-62.33,1637402258.9375
-59.83,1637402258.953125
-57.65,1637402258.96875
-56.0,1637402258.984375
-54.96,1637402259.0
-54.5,1637402259.015625
-54.57,1637402259.03125
-55.11,1637402259.046875
-56.06,1637402259.0625
-57.41,1637402259.078125
-59.14,1637402259.09375
-61.2,1637402259.109375
-63.45,1637402259.125
-65.72,1637402259.140625
-67.8,1637402259.15625
-69.56,1637402259.171875
-70.99,1637402259.1875
-72.18,1637402259.203125
-73.28,1637402259.21875
-74.5,1637402259.234375
-76.11,1637402259.25
-78.38,1637402259.265625
-81.47,1637402259.28125
-85.18,1637402259.296875
-88.75,1637402259.3125
-90.91,1637402259.328125
-90.22,1637402259.34375
-85.62,1637402259.359375
-76.95,1637402259.375
-65.11,1637402259.390625
-51.68,1637402259.40625
-38.36,1637402259.421875
-26.31,1637402259.4375
-16.01,1637402259.453125
-7.33,1637402259.46875
0.0,1637402259.484375
6.13,1637402259.5
10.94,1637402259.515625
14.27,1637402259.53125
16.11,1637402259.546875
16.7,1637402259.5625
16.55,1637402259.578125
16.19,1637402259.59375
16.09,1637402259.609375
16.51,1637402259.625
17.49,1637402259.640625
18.91,1637402259.65625
20.62,1637402259.671875
22.48,1637402259.6875
24.5,1637402259.703125
26.74,1637402259.71875
29.23,1637402259.734375
31.83,1637402259.75
34.18,1637402259.765625
35.84,1637402259.78125
36.37,1637402259.796875
35.61,1637402259.8125
33.63,1637402259.828125
30.76,1637402259.84375
27.36,1637402259.859375
23.73,1637402259.875
20.12,1637402259.890625
16.73,1637402259.90625
13.69,1637402259.921875
11.11,1637402259.9375
8.94,1637402259.953125
7.0,1637402259.96875
5.01,1637402259.984375
2.77,1637402260.0
0.26,1637402260.015625
-2.39,1637402260.03125
-4.96,1637402260.046875
-7.33,1637402260.0625
-9.58,1637402260.078125
-12.02,1637402260.09375
-15.05,1637402260.109375
-18.92,1637402260.125
-23.62,1637402260.140625
-28.87,1637402260.15625
-34.23,1637402260.171875
-39.33,1637402260.1875
-44.04,1637402260.203125
-48.54,1637402260.21875
-53.31,1637402260.234375
-58.95,1637402260.25
-66.0,1637402260.265625
-74.78,1637402260.28125
-85.11,1637402260.296875
-96.2,1637402260.3125
-106.64,1637402260.328125
-114.55,1637402260.34375
-117.99,1637402260.359375
-115.53,1637402260.375
-106.69,1637402260.390625
-92.19,1637402260.40625
-73.76,1637402260.421875
-53.6,1637402260.4375
-33.79,1637402260.453125
-15.85,1637402260.46875
-0.52,1637402260.484375
12.04,1637402260.5
22.04,1637402260.515625
29.71,1637402260.53125
35.23,1637402260.546875
38.7,1637402260.5625
40.22,1637402260.578125
40.08,1637402260.59375
38.7,1637402260.609375
36.74,1637402260.625
34.89,1637402260.640625
33.84,1637402260.65625
34.05,1637402260.671875
35.78,1637402260.6875
38.88,1637402260.703125
42.97,1637402260.71875
47.44,1637402260.734375
51.54,1637402260.75
54.57,1637402260.765625
55.95,1637402260.78125
55.32,1637402260.796875
52.61,1637402260.8125
48.04,1637402260.828125
42.12,1637402260.84375
35.5,1637402260.859375
28.76,1637402260.875
22.26,1637402260.890625
15.97,1637402260.90625
9.58,1637402260.921875
2.66,1637402260.9375
-5.09,1637402260.953125
-13.6,1637402260.96875
-22.44,1637402260.984375
-30.98,1637402261.0
-38.68,1637402261.015625
-45.39,1637402261.03125
-51.54,1637402261.046875
-58.01,1637402261.0625
-65.9,1637402261.078125
-75.94,1637402261.09375
-88.1,1637402261.109375
-101.22,1637402261.125
-113.2,1637402261.140625
-121.49,1637402261.15625
-123.77,1637402261.171875
-118.71,1637402261.1875
-106.27,1637402261.203125
-87.63,1637402261.21875
-64.83,1637402261.234375
-40.21,1637402261.25
-15.98,1637402261.265625
6.05,1637402261.28125
24.51,1637402261.296875
38.49,1637402261.3125
47.55,1637402261.328125
51.75,1637402261.34375
51.65,1637402261.359375
48.28,1637402261.375
42.96,1637402261.390625
37.07,1637402261.40625
31.84,1637402261.421875
28.18,1637402261.4375
26.59,1637402261.453125
27.13,1637402261.46875
29.5,1637402261.484375
33.18,1637402261.5
37.58,1637402261.515625
42.09,1637402261.53125
46.12,1637402261.546875
49.11,1637402261.5625
50.51,1637402261.578125
49.86,1637402261.59375
46.86,1637402261.609375
41.54,1637402261.625
34.29,1637402261.640625
25.83,1637402261.65625
17.01,1637402261.671875
8.62,1637402261.6875
1.06,1637402261.703125
-5.72,1637402261.71875
-12.3,1637402261.734375
-19.58,1637402261.75
-28.46,1637402261.765625
-39.53,1637402261.78125
-52.61,1637402261.796875
-66.6,1637402261.8125
-79.49,1637402261.828125
-88.84,1637402261.84375
-92.32,1637402261.859375
-88.44,1637402261.875
-76.97,1637402261.890625
-59.04,1637402261.90625
-36.85,1637402261.921875
-13.09,1637402261.9375
9.7,1637402261.953125
29.49,1637402261.96875
45.0,1637402261.984375
55.63,1637402262.0
61.24,1637402262.015625
62.12,1637402262.03125
58.88,1637402262.046875
52.48,1637402262.0625
44.23,1637402262.078125
35.61,1637402262.09375
27.97,1637402262.109375
22.3,1637402262.125
19.01,1637402262.140625
17.85,1637402262.15625
18.19,1637402262.171875
19.19,1637402262.1875
20.12,1637402262.203125
20.42,1637402262.21875
19.69,1637402262.234375
17.58,1637402262.25
13.68,1637402262.265625
7.64,1637402262.28125
-0.75,1637402262.296875
-11.32,1637402262.3125
-23.54,1637402262.328125
-36.56,1637402262.34375
-49.52,1637402262.359375
-61.86,1637402262.375
-73.56,1637402262.390625
-85.17,1637402262.40625
-97.63,1637402262.421875
-111.86,1637402262.4375
-128.21,1637402262.453125
-145.99,1637402262.46875
-163.24,1637402262.484375
-176.92,1637402262.5
-183.59,1637402262.515625
-180.33,1637402262.53125
-165.77,1637402262.546875
-140.52,1637402262.5625
-107.0,1637402262.578125
-68.7,1637402262.59375
-29.17,1637402262.609375
8.81,1637402262.625
43.5,1637402262.640625
74.05,1637402262.65625
100.08,1637402262.671875
121.28,1637402262.6875
137.47,1637402262.703125
148.69,1637402262.71875
155.44,1637402262.734375
158.77,1637402262.75
159.96,1637402262.765625
160.25,1637402262.78125
160.48,1637402262.796875
161.02,1637402262.8125
161.83,1637402262.828125
162.69,1637402262.84375
163.34,1637402262.859375
163.61,1637402262.875
163.4,1637402262.890625
162.63,1637402262.90625
161.18,1637402262.921875
158.89,1637402262.9375
155.6,1637402262.953125
151.19,1637402262.96875
145.63,1637402262.984375
139.08,1637402263.0
131.82,1637402263.015625
124.34,1637402263.03125
117.07,1637402263.046875
110.37,1637402263.0625
104.4,1637402263.078125
99.07,1637402263.09375
94.17,1637402263.109375
89.39,1637402263.125
84.48,1637402263.140625
79.29,1637402263.15625
73.78,1637402263.171875
68.08,1637402263.1875
62.42,1637402263.203125
57.12,1637402263.21875
52.38,1637402263.234375
48.21,1637402263.25
44.34,1637402263.265625
40.27,1637402263.28125
35.45,1637402263.296875
29.52,1637402263.3125
22.45,1637402263.328125
14.61,1637402263.34375
6.61,1637402263.359375
-0.98,1637402263.375
-7.86,1637402263.390625
-14.14,1637402263.40625
-20.34,1637402263.421875
-27.14,1637402263.4375
-35.09,1637402263.453125
-44.33,1637402263.46875
-54.54,1637402263.484375
-65.03,1637402263.5
-75.05,1637402263.515625
-84.16,1637402263.53125
-92.38,1637402263.546875
-100.28,1637402263.5625
-108.84,1637402263.578125
-119.24,1637402263.59375
-132.45,1637402263.609375
-148.79,1637402263.625
-167.44,1637402263.640625
-186.19,1637402263.65625
-201.59,1637402263.671875
-209.8,1637402263.6875
-207.63,1637402263.703125
-193.73,1637402263.71875
-169.06,1637402263.734375
-136.68,1637402263.75
-100.8,1637402263.765625
-65.53,1637402263.78125
-33.92,1637402263.796875
-7.45,1637402263.8125
13.79,1637402263.828125
30.58,1637402263.84375
43.98,1637402263.859375
54.84,1637402263.875
63.68,1637402263.890625
70.73,1637402263.90625
76.14,1637402263.921875
80.25,1637402263.9375
83.62,1637402263.953125
86.86,1637402263.96875
90.5,1637402263.984375
94.66,1637402264.0
99.09,1637402264.015625
103.32,1637402264.03125
106.94,1637402264.046875
109.84,1637402264.0625
112.11,1637402264.078125
113.94,1637402264.09375
115.32,1637402264.109375
115.99,1637402264.125
115.51,1637402264.140625
113.52,1637402264.15625
109.99,1637402264.171875
105.21,1637402264.1875
99.84,1637402264.203125
94.57,1637402264.21875
90.01,1637402264.234375
86.44,1637402264.25
83.8,1637402264.265625
81.79,1637402264.28125
79.96,1637402264.296875
77.95,1637402264.3125
75.55,1637402264.328125
72.79,1637402264.34375
69.87,1637402264.359375
67.07,1637402264.375
64.57,1637402264.390625
62.38,1637402264.40625
60.29,1637402264.421875
57.99,1637402264.4375
55.15,1637402264.453125
51.61,1637402264.46875
47.41,1637402264.484375
42.81,1637402264.5
38.14,1637402264.515625
33.74,1637402264.53125
29.76,1637402264.546875
26.18,1637402264.5625
22.81,1637402264.578125
19.41,1637402264.59375
15.73,1637402264.609375
11.63,1637402264.625
7.06,1637402264.640625
2.11,1637402264.65625
-3.08,1637402264.671875
-8.31,1637402264.6875
-13.46,1637402264.703125
-18.52,1637402264.71875
-23.64,1637402264.734375
-29.09,1637402264.75
-35.21,1637402264.765625
-42.11,1637402264.78125
-49.75,1637402264.796875
-57.8,1637402264.8125
-65.81,1637402264.828125
-73.36,1637402264.84375
-80.28,1637402264.859375
-86.73,1637402264.875
-93.24,1637402264.890625
-100.66,1637402264.90625
-109.92,1637402264.921875
-121.7,1637402264.9375
-135.97,1637402264.953125
-151.57,1637402264.96875
-166.18,1637402264.984375
-176.66,1637402265.0
-179.9,1637402265.015625
-173.78,1637402265.03125
-157.93,1637402265.046875
-133.88,1637402265.0625
-104.61,1637402265.078125
-73.67,1637402265.09375
-44.21,1637402265.109375
-18.43,1637402265.125
2.65,1637402265.140625
19.0,1637402265.15625
31.23,1637402265.171875
40.22,1637402265.1875
46.93,1637402265.203125
52.18,1637402265.21875
56.63,1637402265.234375
60.69,1637402265.25
64.53,1637402265.265625
68.14,1637402265.28125
71.5,1637402265.296875
74.53,1637402265.3125
77.26,1637402265.328125
79.78,1637402265.34375
82.24,1637402265.359375
84.76,1637402265.375
87.39,1637402265.390625
89.99,1637402265.40625
92.3,1637402265.421875
93.92,1637402265.4375
94.43,1637402265.453125
93.55,1637402265.46875
91.2,1637402265.484375
87.58,1637402265.5
83.13,1637402265.515625
78.39,1637402265.53125
73.88,1637402265.546875
69.91,1637402265.5625
66.57,1637402265.578125
63.65,1637402265.59375
60.87,1637402265.609375
57.96,1637402265.625
54.81,1637402265.640625
51.49,1637402265.65625
48.22,1637402265.671875
45.23,1637402265.6875
42.62,1637402265.703125
40.33,1637402265.71875
38.11,1637402265.734375
35.65,1637402265.75
32.75,1637402265.765625
29.33,1637402265.78125
25.51,1637402265.796875
21.49,1637402265.8125
17.45,1637402265.828125
13.4,1637402265.84375
9.21,1637402265.859375
4.66,1637402265.875
-0.38,1637402265.890625
-5.86,1637402265.90625
-11.52,1637402265.921875
-17.0,1637402265.9375
-21.96,1637402265.953125
-26.29,1637402265.96875
-30.16,1637402265.984375
-33.97,1637402266.0
-38.2,1637402266.015625
-43.21,1637402266.03125
-49.12,1637402266.046875
-55.73,1637402266.0625
-62.65,1637402266.078125
-69.41,1637402266.09375
-75.72,1637402266.109375
-81.57,1637402266.125
-87.35,1637402266.140625
-93.73,1637402266.15625
-101.54,1637402266.171875
-111.36,1637402266.1875
-123.15,1637402266.203125
-135.92,1637402266.21875
-147.66,1637402266.234375
-155.72,1637402266.25
-157.47,1637402266.265625
-151.13,1637402266.28125
-136.35,1637402266.296875
-114.4,1637402266.3125
-87.85,1637402266.328125
-59.76,1637402266.34375
-33.04,1637402266.359375
-9.72,1637402266.375
9.19,1637402266.390625
23.64,1637402266.40625
34.21,1637402266.421875
41.76,1637402266.4375
47.14,1637402266.453125
51.06,1637402266.46875
54.07,1637402266.484375
56.55,1637402266.5
58.81,1637402266.515625
61.07,1637402266.53125
63.47,1637402266.546875
65.99,1637402266.5625
68.58,1637402266.578125
71.13,1637402266.59375
73.6,1637402266.609375
75.96,1637402266.625
78.25,1637402266.640625
80.41,1637402266.65625
82.29,1637402266.671875
83.65,1637402266.6875
84.23,1637402266.703125
83.9,1637402266.71875
82.65,1637402266.734375
80.7,1637402266.75
78.32,1637402266.765625
75.82,1637402266.78125
73.39,1637402266.796875
71.16,1637402266.8125
69.15,1637402266.828125
67.42,1637402266.84375
66.08,1637402266.859375
65.35,1637402266.875
65.47,1637402266.890625
66.64,1637402266.90625
68.8,1637402266.921875
71.6,1637402266.9375
74.31,1637402266.953125
76.08,1637402266.96875
76.1,1637402266.984375
73.9,1637402267.0
69.45,1637402267.015625
63.12,1637402267.03125
55.46,1637402267.046875
47.0,1637402267.0625
38.08,1637402267.078125
28.9,1637402267.09375
19.66,1637402267.109375
10.56,1637402267.125
1.91,1637402267.140625
-6.06,1637402267.15625
-13.28,1637402267.171875
-19.86,1637402267.1875
-26.04,1637402267.203125
-32.1,1637402267.21875
-38.18,1637402267.234375
-44.3,1637402267.25
-50.34,1637402267.265625
-56.19,1637402267.28125
-61.72,1637402267.296875
-66.84,1637402267.3125
-71.51,1637402267.328125
-75.76,1637402267.34375
-79.76,1637402267.359375
-83.92,1637402267.375
-88.8,1637402267.390625
-94.99,1637402267.40625
-102.66,1637402267.421875
-111.36,1637402267.4375
-119.81,1637402267.453125
-126.13,1637402267.46875
-128.29,1637402267.484375
-124.8,1637402267.5
-115.16,1637402267.515625
-100.14,1637402267.53125
-81.48,1637402267.546875
-61.43,1637402267.5625
-42.07,1637402267.578125
-24.9,1637402267.59375
-10.71,1637402267.609375
0.37,1637402267.625
8.6,1637402267.640625
14.39,1637402267.65625
18.19,1637402267.671875
20.53,1637402267.6875
21.91,1637402267.703125
22.87,1637402267.71875
23.89,1637402267.734375
25.25,1637402267.75
27.04,1637402267.765625
29.17,1637402267.78125
31.44,1637402267.796875
33.69,1637402267.8125
35.87,1637402267.828125
37.97,1637402267.84375
39.98,1637402267.859375
41.81,1637402267.875
43.27,1637402267.890625
44.14,1637402267.90625
44.21,1637402267.921875
43.39,1637402267.9375
41.74,1637402267.953125
39.47,1637402267.96875
36.85,1637402267.984375
34.13,1637402268.0
31.5,1637402268.015625
29.0,1637402268.03125
26.62,1637402268.046875
24.25,1637402268.0625
21.78,1637402268.078125
19.13,1637402268.09375
16.32,1637402268.109375
13.44,1637402268.125
10.64,1637402268.140625
8.08,1637402268.15625
5.85,1637402268.171875
3.91,1637402268.1875
2.15,1637402268.203125
0.41,1637402268.21875
-1.47,1637402268.234375
-3.6,1637402268.25
-6.09,1637402268.265625
-9.01,1637402268.28125
-12.43,1637402268.296875
-16.39,1637402268.3125
-20.73,1637402268.328125
-25.23,1637402268.34375
-29.55,1637402268.359375
-33.42,1637402268.375
-36.77,1637402268.390625
-39.75,1637402268.40625
-42.66,1637402268.421875
-45.79,1637402268.4375
-49.23,1637402268.453125
-52.84,1637402268.46875
-56.3,1637402268.484375
-59.36,1637402268.5
-61.89,1637402268.515625
-64.1,1637402268.53125
-66.43,1637402268.546875
-69.5,1637402268.5625
-73.83,1637402268.578125
-79.65,1637402268.59375
-86.73,1637402268.609375
-94.23,1637402268.625
-100.82,1637402268.640625
-104.86,1637402268.65625
-104.85,1637402268.671875
-99.8,1637402268.6875
-89.51,1637402268.703125
-74.71,1637402268.71875
-56.88,1637402268.734375
-37.93,1637402268.75
-19.73,1637402268.765625
-3.79,1637402268.78125
9.05,1637402268.796875
18.61,1637402268.8125
25.27,1637402268.828125
29.67,1637402268.84375
32.48,1637402268.859375
34.22,1637402268.875
35.27,1637402268.890625
35.92,1637402268.90625
36.45,1637402268.921875
37.14,1637402268.9375
38.21,1637402268.953125
39.7,1637402268.96875
41.48,1637402268.984375
43.32,1637402269.0
45.0,1637402269.015625
46.46,1637402269.03125
47.76,1637402269.046875
49.0,1637402269.0625
50.15,1637402269.078125
50.96,1637402269.09375
51.02,1637402269.109375
50.0,1637402269.125
47.78,1637402269.140625
44.57,1637402269.15625
40.82,1637402269.171875
36.98,1637402269.1875
33.39,1637402269.203125
30.15,1637402269.21875
27.14,1637402269.234375
24.23,1637402269.25
21.3,1637402269.265625
18.38,1637402269.28125
15.52,1637402269.296875
12.76,1637402269.3125
10.09,1637402269.328125
7.47,1637402269.34375
4.82,1637402269.359375
2.14,1637402269.375
-0.6,1637402269.390625
-3.38,1637402269.40625
-6.22,1637402269.421875
-9.07,1637402269.4375
-11.88,1637402269.453125
-14.57,1637402269.46875
-17.12,1637402269.484375
-19.6,1637402269.5
-22.15,1637402269.515625
-24.93,1637402269.53125
-28.02,1637402269.546875
-31.42,1637402269.5625
-35.0,1637402269.578125
-38.55,1637402269.59375
-41.88,1637402269.609375
-44.94,1637402269.625
-47.82,1637402269.640625
-50.77,1637402269.65625
-54.19,1637402269.671875
-58.55,1637402269.6875
-64.2,1637402269.703125
-71.14,1637402269.71875
-78.87,1637402269.734375
-86.25,1637402269.75
-91.68,1637402269.765625
-93.53,1637402269.78125
-90.55,1637402269.796875
-82.36,1637402269.8125
-69.53,1637402269.828125
-53.41,1637402269.84375
-35.78,1637402269.859375
-18.41,1637402269.875
-2.66,1637402269.890625
10.59,1637402269.90625
20.93,1637402269.921875
28.38,1637402269.9375
33.16,1637402269.953125
35.69,1637402269.96875
36.48,1637402269.984375
36.13,1637402270.0
35.22,1637402270.015625
34.29,1637402270.03125
33.81,1637402270.046875
34.06,1637402270.0625
35.15,1637402270.078125
36.93,1637402270.09375
39.12,1637402270.109375
41.39,1637402270.125
43.49,1637402270.140625
45.33,1637402270.15625
46.96,1637402270.171875
48.42,1637402270.1875
49.66,1637402270.203125
50.52,1637402270.21875
50.75,1637402270.234375
50.09,1637402270.25
48.43,1637402270.265625
45.83,1637402270.28125
42.53,1637402270.296875
38.88,1637402270.3125
35.26,1637402270.328125
31.87,1637402270.34375
28.77,1637402270.359375
25.8,1637402270.375
22.73,1637402270.390625
19.39,1637402270.40625
15.77,1637402270.421875
12.07,1637402270.4375
8.57,1637402270.453125
5.51,1637402270.46875
2.94,1637402270.484375
0.71,1637402270.5
-1.47,1637402270.515625
-3.92,1637402270.53125
-6.91,1637402270.546875
-10.59,1637402270.5625
-14.96,1637402270.578125
-19.91,1637402270.59375
-25.2,1637402270.609375
-30.49,1637402270.625
-35.45,1637402270.640625
-39.87,1637402270.65625
-43.8,1637402270.671875
-47.64,1637402270.6875
-52.01,1637402270.703125
-57.55,1637402270.71875
-64.54,1637402270.734375
-72.66,1637402270.75
-80.8,1637402270.765625
-87.34,1637402270.78125
-90.52,1637402270.796875
-88.98,1637402270.8125
-82.18,1637402270.828125
-70.62,1637402270.84375
-55.59,1637402270.859375
-38.88,1637402270.875
-22.23,1637402270.890625
-7.04,1637402270.90625
5.81,1637402270.921875
15.92,1637402270.9375
23.29,1637402270.953125
28.16,1637402270.96875
30.92,1637402270.984375
32.13,1637402271.0
32.38,1637402271.015625
32.21,1637402271.03125
32.04,1637402271.046875
32.07,1637402271.0625
32.38,1637402271.078125
32.96,1637402271.09375
33.8,1637402271.109375
34.98,1637402271.125
36.52,1637402271.140625
38.42,1637402271.15625
40.51,1637402271.171875
42.5,1637402271.1875
44.07,1637402271.203125
44.94,1637402271.21875
44.92,1637402271.234375
43.97,1637402271.25
42.14,1637402271.265625
39.55,1637402271.28125
36.41,1637402271.296875
32.96,1637402271.3125
29.48,1637402271.328125
26.21,1637402271.34375
23.32,1637402271.359375
20.86,1637402271.375
18.74,1637402271.390625
16.79,1637402271.40625
14.77,1637402271.421875
12.44,1637402271.4375
9.67,1637402271.453125
6.44,1637402271.46875
2.9,1637402271.484375
-0.68,1637402271.5
-4.04,1637402271.515625
-7.03,1637402271.53125
-9.69,1637402271.546875
-12.25,1637402271.5625
-15.0,1637402271.578125
-18.21,1637402271.59375
-21.97,1637402271.609375
-26.18,1637402271.625
-30.58,1637402271.640625
-34.85,1637402271.65625
-38.77,1637402271.671875
-42.28,1637402271.6875
-45.51,1637402271.703125
-48.77,1637402271.71875
-52.47,1637402271.734375
-56.99,1637402271.75
-62.58,1637402271.765625
-69.19,1637402271.78125
-76.34,1637402271.796875
-83.08,1637402271.8125
-88.11,1637402271.828125
-90.01,1637402271.84375
-87.62,1637402271.859375
-80.4,1637402271.875
-68.67,1637402271.890625
-53.52,1637402271.90625
-36.59,1637402271.921875
-19.68,1637402271.9375
-4.33,1637402271.953125
8.44,1637402271.96875
18.21,1637402271.984375
25.07,1637402272.0
29.44,1637402272.015625
31.87,1637402272.03125
32.91,1637402272.046875
33.02,1637402272.0625
32.65,1637402272.078125
32.19,1637402272.09375
32.06,1637402272.109375
32.56,1637402272.125
33.86,1637402272.140625
35.8,1637402272.15625
38.05,1637402272.171875
40.15,1637402272.1875
41.66,1637402272.203125
42.4,1637402272.21875
42.36,1637402272.234375
41.64,1637402272.25
40.36,1637402272.265625
38.49,1637402272.28125
35.92,1637402272.296875
32.57,1637402272.3125
28.52,1637402272.328125
24.09,1637402272.34375
19.75,1637402272.359375
15.97,1637402272.375
13.0,1637402272.390625
10.8,1637402272.40625
9.05,1637402272.421875
7.33,1637402272.4375
5.31,1637402272.453125
2.81,1637402272.46875
-0.16,1637402272.484375
-3.42,1637402272.5
-6.74,1637402272.515625
-9.89,1637402272.53125
-12.65,1637402272.546875
-14.89,1637402272.5625
-16.67,1637402272.578125
-18.21,1637402272.59375
-19.95,1637402272.609375
-22.34,1637402272.625
-25.67,1637402272.640625
-29.96,1637402272.65625
-34.91,1637402272.671875
-40.05,1637402272.6875
-44.91,1637402272.703125
-49.2,1637402272.71875
-52.91,1637402272.734375
-56.35,1637402272.75
-60.05,1637402272.765625
-64.66,1637402272.78125
-70.71,1637402272.796875
-78.29,1637402272.8125
-86.79,1637402272.828125
-94.84,1637402272.84375
-100.55,1637402272.859375
-102.03,1637402272.875
-98.03,1637402272.890625
-88.39,1637402272.90625
-74.09,1637402272.921875
-56.96,1637402272.9375
-39.1,1637402272.953125
-22.35,1637402272.96875
-7.95,1637402272.984375
3.54,1637402273.0
12.12,1637402273.015625
18.12,1637402273.03125
22.06,1637402273.046875
24.45,1637402273.0625
25.77,1637402273.078125
26.4,1637402273.09375
26.69,1637402273.109375
26.87,1637402273.125
27.15,1637402273.140625
27.68,1637402273.15625
28.52,1637402273.171875
29.7,1637402273.1875
31.12,1637402273.203125
32.71,1637402273.21875
34.32,1637402273.234375
35.89,1637402273.25
37.27,1637402273.265625
38.32,1637402273.28125
38.83,1637402273.296875
38.58,1637402273.3125
37.45,1637402273.328125
35.46,1637402273.34375
32.81,1637402273.359375
29.82,1637402273.375
26.8,1637402273.390625
23.98,1637402273.40625
21.37,1637402273.421875
18.84,1637402273.4375
16.21,1637402273.453125
13.44,1637402273.46875
10.6,1637402273.484375
7.89,1637402273.5
5.5,1637402273.515625
3.43,1637402273.53125
1.52,1637402273.546875
-0.54,1637402273.5625
-3.02,1637402273.578125
-6.0,1637402273.59375
-9.36,1637402273.609375
-12.79,1637402273.625
-15.99,1637402273.640625
-18.84,1637402273.65625
-21.52,1637402273.671875
-24.42,1637402273.6875
-27.99,1637402273.703125
-32.5,1637402273.71875
-37.92,1637402273.734375
-43.9,1637402273.75
-49.94,1637402273.765625
-55.61,1637402273.78125
-60.77,1637402273.796875
-65.58,1637402273.8125
-70.48,1637402273.828125
-76.05,1637402273.84375
-82.83,1637402273.859375
-91.16,1637402273.875
-100.99,1637402273.890625
-111.64,1637402273.90625
-121.71,1637402273.921875
-129.22,1637402273.9375
-131.94,1637402273.953125
-128.08,1637402273.96875
-116.84,1637402273.984375
-98.78,1637402274.0
-75.73,1637402274.015625
-50.3,1637402274.03125
-25.19,1637402274.046875
-2.53,1637402274.0625
16.37,1637402274.078125
31.1,1637402274.09375
41.83,1637402274.109375
49.12,1637402274.125
53.63,1637402274.140625
56.14,1637402274.15625
57.44,1637402274.171875
58.32,1637402274.1875
59.48,1637402274.203125
61.4,1637402274.21875
64.24,1637402274.234375
67.86,1637402274.25
71.92,1637402274.265625
76.05,1637402274.28125
79.95,1637402274.296875
83.48,1637402274.3125
86.6,1637402274.328125
89.26,1637402274.34375
91.33,1637402274.359375
92.55,1637402274.375
92.66,1637402274.390625
91.44,1637402274.40625
88.86,1637402274.421875
85.08,1637402274.4375
80.41,1637402274.453125
75.22,1637402274.46875
69.9,1637402274.484375
64.66,1637402274.5
59.64,1637402274.515625
54.86,1637402274.53125
50.26,1637402274.546875
45.8,1637402274.5625
41.41,1637402274.578125
37.09,1637402274.59375
32.83,1637402274.609375
28.57,1637402274.625
24.24,1637402274.640625
19.74,1637402274.65625
14.99,1637402274.671875
9.99,1637402274.6875
4.84,1637402274.703125
-0.33,1637402274.71875
-5.41,1637402274.734375
-10.41,1637402274.75
-15.52,1637402274.765625
-21.02,1637402274.78125
-27.15,1637402274.796875
-33.97,1637402274.8125
-41.23,1637402274.828125
-48.48,1637402274.84375
-55.27,1637402274.859375
-61.35,1637402274.875
-66.83,1637402274.890625
-72.18,1637402274.90625
-78.03,1637402274.921875
-84.97,1637402274.9375
-93.39,1637402274.953125
-103.21,1637402274.96875
-113.78,1637402274.984375
-123.74,1637402275.0
-131.18,1637402275.015625
-133.85,1637402275.03125
-129.82,1637402275.046875
-118.1,1637402275.0625
-99.19,1637402275.078125
-75.08,1637402275.09375
-48.79,1637402275.109375
-23.5,1637402275.125
-1.67,1637402275.140625
15.49,1637402275.15625
27.98,1637402275.171875
36.59,1637402275.1875
42.34,1637402275.203125
46.04,1637402275.21875
48.18,1637402275.234375
49.11,1637402275.25
49.2,1637402275.265625
48.97,1637402275.28125
49.04,1637402275.296875
49.94,1637402275.3125
51.89,1637402275.328125
54.8,1637402275.34375
58.29,1637402275.359375
61.91,1637402275.375
65.32,1637402275.390625
68.35,1637402275.40625
70.96,1637402275.421875
73.09,1637402275.4375
74.58,1637402275.453125
75.12,1637402275.46875
74.38,1637402275.484375
72.2,1637402275.5
68.64,1637402275.515625
64.07,1637402275.53125
59.0,1637402275.546875
53.92,1637402275.5625
49.16,1637402275.578125
44.81,1637402275.59375
40.82,1637402275.609375
37.06,1637402275.625
33.38,1637402275.640625
29.75,1637402275.65625
26.1,1637402275.671875
22.39,1637402275.6875
18.56,1637402275.703125
14.55,1637402275.71875
10.33,1637402275.734375
5.97,1637402275.75
1.61,1637402275.765625
-2.58,1637402275.78125
-6.5,1637402275.796875
-10.22,1637402275.8125
-13.99,1637402275.828125
-18.19,1637402275.84375
-23.1,1637402275.859375
-28.75,1637402275.875
-34.84,1637402275.890625
-40.81,1637402275.90625
-46.15,1637402275.921875
-50.61,1637402275.9375
-54.34,1637402275.953125
-57.93,1637402275.96875
-62.19,1637402275.984375
-67.94,1637402276.0
-75.77,1637402276.015625
-85.76,1637402276.03125
-97.22,1637402276.046875
-108.62,1637402276.0625
-117.71,1637402276.078125
-122.06,1637402276.09375
-119.69,1637402276.109375
-109.8,1637402276.125
-93.15,1637402276.140625
-71.82,1637402276.15625
-48.61,1637402276.171875
-26.24,1637402276.1875
-6.64,1637402276.203125
9.23,1637402276.21875
21.31,1637402276.234375
30.03,1637402276.25
35.96,1637402276.265625
39.6,1637402276.28125
41.43,1637402276.296875
41.94,1637402276.3125
41.68,1637402276.328125
41.26,1637402276.34375
41.22,1637402276.359375
41.88,1637402276.375
43.3,1637402276.390625
45.33,1637402276.40625
47.68,1637402276.421875
50.17,1637402276.4375
52.72,1637402276.453125
55.36,1637402276.46875
58.04,1637402276.484375
60.54,1637402276.5
62.42,1637402276.515625
63.16,1637402276.53125
62.4,1637402276.546875
60.1,1637402276.5625
56.56,1637402276.578125
52.32,1637402276.59375
47.93,1637402276.609375
43.75,1637402276.625
39.92,1637402276.640625
36.35,1637402276.65625
32.93,1637402276.671875
29.55,1637402276.6875
26.26,1637402276.703125
23.19,1637402276.71875
20.49,1637402276.734375
18.27,1637402276.75
16.48,1637402276.765625
14.91,1637402276.78125
13.21,1637402276.796875
11.05,1637402276.8125
8.19,1637402276.828125
4.6,1637402276.84375
0.5,1637402276.859375
-3.78,1637402276.875
-7.96,1637402276.890625
-11.9,1637402276.90625
-15.73,1637402276.921875
-19.78,1637402276.9375
-24.44,1637402276.953125
-30.03,1637402276.96875
-36.61,1637402276.984375
-43.88,1637402277.0
-51.32,1637402277.015625
-58.37,1637402277.03125
-64.69,1637402277.046875
-70.34,1637402277.0625
-75.8,1637402277.078125
-81.82,1637402277.09375
-89.15,1637402277.109375
-98.31,1637402277.125
-109.28,1637402277.140625
-121.34,1637402277.15625
-132.94,1637402277.171875
-141.93,1637402277.1875
-145.97,1637402277.203125
-143.17,1637402277.21875
-132.82,1637402277.234375
-115.69,1637402277.25
-93.91,1637402277.265625
-70.39,1637402277.28125
-47.96,1637402277.296875
-28.66,1637402277.3125
-13.5,1637402277.328125
-2.54,1637402277.34375
4.7,1637402277.359375
8.89,1637402277.375
10.69,1637402277.390625
10.75,1637402277.40625
9.79,1637402277.421875
8.57,1637402277.4375
7.76,1637402277.453125
7.84,1637402277.46875
8.9,1637402277.484375
10.76,1637402277.5
13.08,1637402277.515625
15.63,1637402277.53125
18.47,1637402277.546875
21.93,1637402277.5625
26.43,1637402277.578125
32.25,1637402277.59375
39.35,1637402277.609375
47.3,1637402277.625
55.46,1637402277.640625
63.19,1637402277.65625
70.09,1637402277.671875
76.04,1637402277.6875
81.12,1637402277.703125
85.45,1637402277.71875
89.07,1637402277.734375
91.9,1637402277.75
93.7,1637402277.765625
94.24,1637402277.78125
93.34,1637402277.796875
91.02,1637402277.8125
87.49,1637402277.828125
83.14,1637402277.84375
78.4,1637402277.859375
73.54,1637402277.875
68.64,1637402277.890625
63.56,1637402277.90625
58.09,1637402277.921875
52.15,1637402277.9375
45.79,1637402277.953125
39.31,1637402277.96875
32.99,1637402277.984375
27.08,1637402278.0
21.59,1637402278.015625
16.35,1637402278.03125
11.02,1637402278.046875
5.22,1637402278.0625
-1.32,1637402278.078125
-8.71,1637402278.09375
-16.76,1637402278.109375
-25.05,1637402278.125
-33.07,1637402278.140625
-40.4,1637402278.15625
-46.94,1637402278.171875
-52.97,1637402278.1875
-59.11,1637402278.203125
-66.17,1637402278.21875
-74.82,1637402278.234375
-85.25,1637402278.25
-96.92,1637402278.265625
-108.36,1637402278.28125
-117.33,1637402278.296875
-121.35,1637402278.3125
-118.43,1637402278.328125
-107.76,1637402278.34375
-90.16,1637402278.359375
-67.86,1637402278.375
-43.89,1637402278.390625
-21.16,1637402278.40625
-1.7,1637402278.421875
13.61,1637402278.4375
24.9,1637402278.453125
32.8,1637402278.46875
38.06,1637402278.484375
41.31,1637402278.5
43.05,1637402278.515625
43.78,1637402278.53125
44.09,1637402278.546875
44.6,1637402278.5625
45.86,1637402278.578125
48.17,1637402278.59375
51.51,1637402278.609375
55.56,1637402278.625
59.85,1637402278.640625
63.93,1637402278.65625
67.48,1637402278.671875
70.4,1637402278.6875
72.72,1637402278.703125
74.48,1637402278.71875
75.62,1637402278.734375
75.97,1637402278.75
75.26,1637402278.765625
73.32,1637402278.78125
70.16,1637402278.796875
66.12,1637402278.8125
61.69,1637402278.828125
57.42,1637402278.84375
53.63,1637402278.859375
50.35,1637402278.875
47.31,1637402278.890625
44.2,1637402278.90625
40.82,1637402278.921875
37.19,1637402278.9375
33.57,1637402278.953125
30.23,1637402278.96875
27.31,1637402278.984375
24.73,1637402279.0
22.19,1637402279.015625
19.36,1637402279.03125
16.02,1637402279.046875
12.2,1637402279.0625
8.1,1637402279.078125
4.02,1637402279.09375
0.19,1637402279.109375
-3.35,1637402279.125
-6.78,1637402279.140625
-10.47,1637402279.15625
-14.79,1637402279.171875
-20.02,1637402279.1875
-26.13,1637402279.203125
-32.84,1637402279.21875
-39.65,1637402279.234375
-46.03,1637402279.25
-51.62,1637402279.265625
-56.38,1637402279.28125
-60.59,1637402279.296875
-64.93,1637402279.3125
-70.23,1637402279.328125
-77.25,1637402279.34375
-86.34,1637402279.359375
-97.06,1637402279.375
-108.03,1637402279.390625
-117.09,1637402279.40625
-121.75,1637402279.421875
-119.95,1637402279.4375
-110.72,1637402279.453125
-94.6,1637402279.46875
-73.49,1637402279.484375
-50.08,1637402279.5
-27.14,1637402279.515625
-6.8,1637402279.53125
9.72,1637402279.546875
22.16,1637402279.5625
30.89,1637402279.578125
36.59,1637402279.59375
39.96,1637402279.609375
41.69,1637402279.625
42.41,1637402279.640625
42.69,1637402279.65625
42.98,1637402279.671875
43.57,1637402279.6875
44.52,1637402279.703125
45.74,1637402279.71875
47.12,1637402279.734375
48.6,1637402279.75
50.28,1637402279.765625
52.24,1637402279.78125
54.54,1637402279.796875
57.03,1637402279.8125
59.43,1637402279.828125
61.34,1637402279.84375
62.39,1637402279.859375
62.37,1637402279.875
61.21,1637402279.890625
58.99,1637402279.90625
55.93,1637402279.921875
52.33,1637402279.9375
48.52,1637402279.953125
44.75,1637402279.96875
41.13,1637402279.984375
37.64,1637402280.0
34.21,1637402280.015625
30.84,1637402280.03125
27.64,1637402280.046875
24.82,1637402280.0625
22.47,1637402280.078125
20.51,1637402280.09375
18.59,1637402280.109375
16.29,1637402280.125
13.3,1637402280.140625
9.62,1637402280.15625
5.55,1637402280.171875
1.52,1637402280.1875
-2.17,1637402280.203125
-5.52,1637402280.21875
-8.86,1637402280.234375
-12.64,1637402280.25
-17.17,1637402280.265625
-22.49,1637402280.28125
-28.34,1637402280.296875
-34.3,1637402280.3125
-40.02,1637402280.328125
-45.36,1637402280.34375
-50.39,1637402280.359375
-55.32,1637402280.375
-60.47,1637402280.390625
-66.22,1637402280.40625
-72.99,1637402280.421875
-81.09,1637402280.4375
-90.42,1637402280.453125
-100.16,1637402280.46875
-108.69,1637402280.484375
-113.84,1637402280.5
-113.49,1637402280.515625
-106.4,1637402280.53125
-92.64,1637402280.546875
-73.73,1637402280.5625
-52.07,1637402280.578125
-30.29,1637402280.59375
-10.48,1637402280.609375
6.1,1637402280.625
19.04,1637402280.640625
28.46,1637402280.65625
34.73,1637402280.671875
38.27,1637402280.6875
39.6,1637402280.703125
39.35,1637402280.71875
38.31,1637402280.734375
37.36,1637402280.75
37.25,1637402280.765625
38.4,1637402280.78125
40.86,1637402280.796875
44.31,1637402280.8125
48.25,1637402280.828125
52.18,1637402280.84375
55.74,1637402280.859375
58.7,1637402280.875
60.94,1637402280.890625
62.36,1637402280.90625
62.88,1637402280.921875
62.46,1637402280.9375
61.13,1637402280.953125
58.99,1637402280.96875
56.23,1637402280.984375
53.02,1637402281.0
49.49,1637402281.015625
45.77,1637402281.03125
41.94,1637402281.046875
38.1,1637402281.0625
34.36,1637402281.078125
30.77,1637402281.09375
27.33,1637402281.109375
23.99,1637402281.125
20.67,1637402281.140625
17.31,1637402281.15625
13.91,1637402281.171875
10.53,1637402281.1875
7.25,1637402281.203125
4.11,1637402281.21875
1.11,1637402281.234375
-1.83,1637402281.25
-4.88,1637402281.265625
-8.24,1637402281.28125
-12.12,1637402281.296875
-16.65,1637402281.3125
-21.84,1637402281.328125
-27.57,1637402281.34375
-33.58,1637402281.359375
-39.55,1637402281.375
-45.22,1637402281.390625
-50.43,1637402281.40625
-55.22,1637402281.421875
-59.87,1637402281.4375
-64.81,1637402281.453125
-70.63,1637402281.46875
-77.85,1637402281.484375
-86.74,1637402281.5
-96.96,1637402281.515625
-107.37,1637402281.53125
-116.08,1637402281.546875
-120.82,1637402281.5625
-119.58,1637402281.578125
-111.35,1637402281.59375
-96.48,1637402281.609375
-76.67,1637402281.625
-54.43,1637402281.640625
-32.39,1637402281.65625
-12.59,1637402281.671875
3.82,1637402281.6875
16.52,1637402281.703125
25.75,1637402281.71875
32.04,1637402281.734375
35.94,1637402281.75
38.08,1637402281.765625
39.08,1637402281.78125
39.59,1637402281.796875
40.21,1637402281.8125
41.35,1637402281.828125
43.2,1637402281.84375
45.73,1637402281.859375
48.71,1637402281.875
51.86,1637402281.890625
54.95,1637402281.90625
57.8,1637402281.921875
60.32,1637402281.9375
62.46,1637402281.953125
64.18,1637402281.96875
65.37,1637402281.984375
65.84,1637402282.0
65.37,1637402282.015625
63.8,1637402282.03125
61.1,1637402282.046875
57.45,1637402282.0625
53.22,1637402282.078125
48.83,1637402282.09375
44.64,1637402282.109375
40.8,1637402282.125
37.22,1637402282.140625
33.75,1637402282.15625
30.22,1637402282.171875
26.63,1637402282.1875
23.1,1637402282.203125
19.78,1637402282.21875
16.77,1637402282.234375
13.98,1637402282.25
11.17,1637402282.265625
8.08,1637402282.28125
4.52,1637402282.296875
0.53,1637402282.3125
-3.68,1637402282.328125
-7.82,1637402282.34375
-11.76,1637402282.359375
-15.61,1637402282.375
-19.71,1637402282.390625
-24.45,1637402282.40625
-30.06,1637402282.421875
-36.45,1637402282.4375
-43.18,1637402282.453125
-49.69,1637402282.46875
-55.55,1637402282.484375
-60.67,1637402282.5
-65.36,1637402282.515625
-70.29,1637402282.53125
-76.21,1637402282.546875
-83.77,1637402282.5625
-93.27,1637402282.578125
-104.4,1637402282.59375
-116.17,1637402282.609375
-126.86,1637402282.625
-134.31,1637402282.640625
-136.42,1637402282.65625
-131.78,1637402282.671875
-120.21,1637402282.6875
-102.91,1637402282.703125
-82.17,1637402282.71875
-60.74,1637402282.734375
-41.06,1637402282.75
-24.73,1637402282.765625
-12.32,1637402282.78125
-3.59,1637402282.796875
2.11,1637402282.8125
5.51,1637402282.828125
7.25,1637402282.84375
7.88,1637402282.859375
8.01,1637402282.875
8.35,1637402282.890625
9.66,1637402282.90625
12.54,1637402282.921875
17.29,1637402282.9375
23.81,1637402282.953125
31.67,1637402282.96875
40.36,1637402282.984375
49.42,1637402283.0
58.6,1637402283.015625
67.81,1637402283.03125
76.91,1637402283.046875
85.54,1637402283.0625
93.1,1637402283.078125
98.85,1637402283.09375
102.17,1637402283.109375
102.8,1637402283.125
100.98,1637402283.140625
97.36,1637402283.15625
92.75,1637402283.171875
87.88,1637402283.1875
83.15,1637402283.203125
78.64,1637402283.21875
74.17,1637402283.234375
69.5,1637402283.25
64.51,1637402283.265625
59.24,1637402283.28125
53.93,1637402283.296875
48.85,1637402283.3125
44.21,1637402283.328125
39.99,1637402283.34375
36.02,1637402283.359375
31.97,1637402283.375
27.58,1637402283.390625
22.71,1637402283.40625
17.44,1637402283.421875
12.03,1637402283.4375
6.77,1637402283.453125
1.86,1637402283.46875
-2.71,1637402283.484375
-7.18,1637402283.5
-11.9,1637402283.515625
-17.22,1637402283.53125
-23.29,1637402283.546875
-29.98,1637402283.5625
-36.9,1637402283.578125
-43.56,1637402283.59375
-49.54,1637402283.609375
-54.73,1637402283.625
-59.35,1637402283.640625
-63.96,1637402283.65625
-69.3,1637402283.671875
-76.05,1637402283.6875
-84.59,1637402283.703125
-94.69,1637402283.71875
-105.37,1637402283.734375
-114.86,1637402283.75
-120.93,1637402283.765625
-121.51,1637402283.78125
-115.31,1637402283.796875
-102.33,1637402283.8125
-83.92,1637402283.828125
-62.41,1637402283.84375
-40.4,1637402283.859375
-20.05,1637402283.875
-2.69,1637402283.890625
11.23,1637402283.90625
21.89,1637402283.921875
29.71,1637402283.9375
35.15,1637402283.953125
38.63,1637402283.96875
40.57,1637402283.984375
41.56,1637402284.0
42.22,1637402284.015625
43.21,1637402284.03125
44.98,1637402284.046875
47.62,1637402284.0625
50.89,1637402284.078125
54.27,1637402284.09375
57.23,1637402284.109375
59.43,1637402284.125
60.82,1637402284.140625
61.61,1637402284.15625
62.1,1637402284.171875
62.42,1637402284.1875
62.55,1637402284.203125
62.22,1637402284.21875
61.11,1637402284.234375
59.03,1637402284.25
56.0,1637402284.265625
52.3,1637402284.28125
48.35,1637402284.296875
44.55,1637402284.3125
41.19,1637402284.328125
38.33,1637402284.34375
35.87,1637402284.359375
33.58,1637402284.375
31.27,1637402284.390625
28.81,1637402284.40625
26.21,1637402284.421875
23.54,1637402284.4375
20.94,1637402284.453125
18.5,1637402284.46875
16.28,1637402284.484375
14.26,1637402284.5
12.37,1637402284.515625
10.52,1637402284.53125
8.64,1637402284.546875
6.72,1637402284.5625
4.82,1637402284.578125
3.04,1637402284.59375
1.48,1637402284.609375
0.07,1637402284.625
-1.41,1637402284.640625
-3.34,1637402284.65625
-6.12,1637402284.671875
-10.0,1637402284.6875
-14.96,1637402284.703125
-20.67,1637402284.71875
-26.65,1637402284.734375
-32.45,1637402284.75
-37.87,1637402284.765625
-43.04,1637402284.78125
-48.45,1637402284.796875
-54.79,1637402284.8125
-62.75,1637402284.828125
-72.72,1637402284.84375
-84.58,1637402284.859375
-97.51,1637402284.875
-109.91,1637402284.890625
-119.68,1637402284.90625
-124.66,1637402284.921875
-123.25,1637402284.9375
-115.01,1637402284.953125
-100.83,1637402284.96875
-82.72,1637402284.984375
-63.19,1637402285.0
-44.53,1637402285.015625
-28.22,1637402285.03125
-14.76,1637402285.046875
-3.88,1637402285.0625
5.07,1637402285.078125
12.69,1637402285.09375
19.36,1637402285.109375
25.22,1637402285.125
30.35,1637402285.140625
34.88,1637402285.15625
39.09,1637402285.171875
43.27,1637402285.1875
47.67,1637402285.203125
52.26,1637402285.21875
56.73,1637402285.234375
60.68,1637402285.25
63.7,1637402285.265625
65.66,1637402285.28125
66.7,1637402285.296875
67.13,1637402285.3125
67.22,1637402285.328125
66.99,1637402285.34375
66.19,1637402285.359375
64.45,1637402285.375
61.51,1637402285.390625
57.39,1637402285.40625
52.44,1637402285.421875
47.2,1637402285.4375
42.15,1637402285.453125
37.56,1637402285.46875
33.43,1637402285.484375
29.58,1637402285.5
25.8,1637402285.515625
21.92,1637402285.53125
17.96,1637402285.546875
14.04,1637402285.5625
10.4,1637402285.578125
7.26,1637402285.59375
4.78,1637402285.609375
2.92,1637402285.625
1.42,1637402285.640625
-0.14,1637402285.65625
-2.25,1637402285.671875
-5.23,1637402285.6875
-9.12,1637402285.703125
-13.58,1637402285.71875
-18.06,1637402285.734375
-21.99,1637402285.75
-25.11,1637402285.765625
-27.59,1637402285.78125
-29.92,1637402285.796875
-32.73,1637402285.8125
-36.43,1637402285.828125
-41.0,1637402285.84375
-46.1,1637402285.859375
-51.22,1637402285.875
-55.96,1637402285.890625
-60.24,1637402285.90625
-64.29,1637402285.921875
-68.55,1637402285.9375
-73.54,1637402285.953125
-79.73,1637402285.96875
-87.41,1637402285.984375
-96.52,1637402286.0
-106.34,1637402286.015625
-115.46,1637402286.03125
-121.86,1637402286.046875
-123.4,1637402286.0625
-118.54,1637402286.078125
-106.92,1637402286.09375
-89.63,1637402286.109375
-68.87,1637402286.125
-47.28,1637402286.140625
-27.19,1637402286.15625
-10.04,1637402286.171875
3.64,1637402286.1875
14.06,1637402286.203125
21.73,1637402286.21875
27.18,1637402286.234375
30.84,1637402286.25
33.12,1637402286.265625
34.47,1637402286.28125
35.44,1637402286.296875
36.62,1637402286.3125
38.46,1637402286.328125
41.19,1637402286.34375
44.71,1637402286.359375
48.65,1637402286.375
52.56,1637402286.390625
56.07,1637402286.40625
59.03,1637402286.421875
61.44,1637402286.4375
63.35,1637402286.453125
64.74,1637402286.46875
65.41,1637402286.484375
65.06,1637402286.5
63.52,1637402286.515625
60.8,1637402286.53125
57.23,1637402286.546875
53.26,1637402286.5625
49.34,1637402286.578125
45.72,1637402286.59375
42.42,1637402286.609375
39.3,1637402286.625
36.18,1637402286.640625
33.01,1637402286.65625
29.84,1637402286.671875
26.77,1637402286.6875
23.88,1637402286.703125
21.12,1637402286.71875
18.36,1637402286.734375
15.46,1637402286.75
12.39,1637402286.765625
9.2,1637402286.78125
6.01,1637402286.796875
2.88,1637402286.8125
-0.24,1637402286.828125
-3.51,1637402286.84375
-7.15,1637402286.859375
-11.31,1637402286.875
-16.05,1637402286.890625
-21.3,1637402286.90625
-26.9,1637402286.921875
-32.63,1637402286.9375
-38.25,1637402286.953125
-43.56,1637402286.96875
-48.49,1637402286.984375
-53.13,1637402287.0
-57.79,1637402287.015625
-62.96,1637402287.03125
-69.26,1637402287.046875
-77.11,1637402287.0625
-86.51,1637402287.078125
-96.69,1637402287.09375
-106.12,1637402287.109375
-112.74,1637402287.125
-114.47,1637402287.140625
-109.88,1637402287.15625
-98.74,1637402287.171875
-82.16,1637402287.1875
-62.2,1637402287.203125
-41.32,1637402287.21875
-21.66,1637402287.234375
-4.6,1637402287.25
9.3,1637402287.265625
20.1,1637402287.28125
28.19,1637402287.296875
34.04,1637402287.3125
38.11,1637402287.328125
40.85,1637402287.34375
42.69,1637402287.359375
44.06,1637402287.375
45.32,1637402287.390625
46.69,1637402287.40625
48.29,1637402287.421875
50.14,1637402287.4375
52.23,1637402287.453125
54.49,1637402287.46875
56.81,1637402287.484375
59.04,1637402287.5
60.97,1637402287.515625
62.35,1637402287.53125
62.95,1637402287.546875
62.58,1637402287.5625
61.14,1637402287.578125
58.64,1637402287.59375
55.19,1637402287.609375
51.02,1637402287.625
46.45,1637402287.640625
41.8,1637402287.65625
37.33,1637402287.671875
33.12,1637402287.6875
29.08,1637402287.703125
25.02,1637402287.71875
20.76,1637402287.734375
16.3,1637402287.75
11.82,1637402287.765625
7.52,1637402287.78125
3.52,1637402287.796875
-0.25,1637402287.8125
-4.08,1637402287.828125
-8.32,1637402287.84375
-13.19,1637402287.859375
-18.69,1637402287.875
-24.6,1637402287.890625
-30.54,1637402287.90625
-36.22,1637402287.921875
-41.44,1637402287.9375
-46.25,1637402287.953125
-50.84,1637402287.96875
-55.65,1637402287.984375
-61.27,1637402288.0
-68.3,1637402288.015625
-77.05,1637402288.03125
-87.19,1637402288.046875
-97.47,1637402288.0625
-105.85,1637402288.078125
-109.93,1637402288.09375
-107.8,1637402288.109375
-98.69,1637402288.125
-83.36,1637402288.140625
-63.85,1637402288.15625
-42.85,1637402288.171875
-22.84,1637402288.1875
-5.46,1637402288.203125
8.65,1637402288.21875
19.62,1637402288.234375
27.95,1637402288.25
34.14,1637402288.265625
38.55,1637402288.28125
41.47,1637402288.296875
43.19,1637402288.3125
44.14,1637402288.328125
44.85,1637402288.34375
45.8,1637402288.359375
47.29,1637402288.375
49.33,1637402288.390625
51.64,1637402288.40625
53.82,1637402288.421875
55.5,1637402288.4375
56.52,1637402288.453125
56.93,1637402288.46875
56.9,1637402288.484375
56.58,1637402288.5
55.93,1637402288.515625
54.72,1637402288.53125
52.64,1637402288.546875
49.45,1637402288.5625
45.15,1637402288.578125
39.94,1637402288.59375
34.19,1637402288.609375
28.31,1637402288.625
22.65,1637402288.640625
17.46,1637402288.65625
12.86,1637402288.671875
8.82,1637402288.6875
5.17,1637402288.703125
1.57,1637402288.71875
-2.38,1637402288.734375
-6.99,1637402288.75
-12.39,1637402288.765625
-18.39,1637402288.78125
-24.62,1637402288.796875
-30.65,1637402288.8125
-36.19,1637402288.828125
-41.23,1637402288.84375
-46.09,1637402288.859375
-51.33,1637402288.875
-57.57,1637402288.890625
-65.32,1637402288.90625
-74.68,1637402288.921875
-85.11,1637402288.9375
-95.32,1637402288.953125
-103.39,1637402288.96875
-107.19,1637402288.984375
-105.05,1637402289.0
-96.31,1637402289.015625
-81.65,1637402289.03125
-62.89,1637402289.046875
-42.46,1637402289.0625
-22.65,1637402289.078125
-5.08,1637402289.09375
9.52,1637402289.109375
21.14,1637402289.125
30.15,1637402289.140625
36.98,1637402289.15625
41.97,1637402289.171875
45.34,1637402289.1875
47.35,1637402289.203125
48.32,1637402289.21875
48.64,1637402289.234375
48.73,1637402289.25
48.89,1637402289.265625
49.33,1637402289.28125
50.07,1637402289.296875
51.06,1637402289.3125
52.14,1637402289.328125
53.11,1637402289.34375
53.69,1637402289.359375
53.54,1637402289.375
52.38,1637402289.390625
50.03,1637402289.40625
46.56,1637402289.421875
42.22,1637402289.4375
37.33,1637402289.453125
32.16,1637402289.46875
26.81,1637402289.484375
21.18,1637402289.5
15.13,1637402289.515625
8.62,1637402289.53125
1.78,1637402289.546875
-5.09,1637402289.5625
-11.66,1637402289.578125
-17.69,1637402289.59375
-23.11,1637402289.609375
-28.1,1637402289.625
-32.98,1637402289.640625
-38.25,1637402289.65625
-44.43,1637402289.671875
-51.91,1637402289.6875
-60.73,1637402289.703125
-70.3,1637402289.71875
-79.36,1637402289.734375
-86.1,1637402289.75
-88.62,1637402289.765625
-85.51,1637402289.78125
-76.32,1637402289.796875
-61.82,1637402289.8125
-43.74,1637402289.828125
-24.36,1637402289.84375
-5.82,1637402289.859375
10.36,1637402289.875
23.55,1637402289.890625
33.83,1637402289.90625
41.69,1637402289.921875
47.63,1637402289.9375
51.95,1637402289.953125
54.77,1637402289.96875
56.18,1637402289.984375
56.45,1637402290.0
56.08,1637402290.015625
55.69,1637402290.03125
55.83,1637402290.046875
56.74,1637402290.0625
58.31,1637402290.078125
60.13,1637402290.09375
61.77,1637402290.109375
62.95,1637402290.125
63.6,1637402290.140625
63.78,1637402290.15625
63.55,1637402290.171875
62.9,1637402290.1875
61.7,1637402290.203125
59.81,1637402290.21875
57.2,1637402290.234375
53.98,1637402290.25
50.44,1637402290.265625
46.87,1637402290.28125
43.54,1637402290.296875
40.59,1637402290.3125
38.03,1637402290.328125
35.78,1637402290.34375
33.73,1637402290.359375
31.75,1637402290.375
29.76,1637402290.390625
27.68,1637402290.40625
25.5,1637402290.421875
23.25,1637402290.4375
20.99,1637402290.453125
18.85,1637402290.46875
16.89,1637402290.484375
15.12,1637402290.5
13.45,1637402290.515625
11.68,1637402290.53125
9.65,1637402290.546875
7.25,1637402290.5625
4.51,1637402290.578125
1.61,1637402290.59375
-1.18,1637402290.609375
-3.63,1637402290.625
-5.63,1637402290.640625
-7.3,1637402290.65625
-8.94,1637402290.671875
-10.88,1637402290.6875
-13.39,1637402290.703125
-16.51,1637402290.71875
-20.01,1637402290.734375
-23.53,1637402290.75
-26.74,1637402290.765625
-29.5,1637402290.78125
-31.94,1637402290.796875
-34.44,1637402290.8125
-37.42,1637402290.828125
-41.19,1637402290.84375
-45.81,1637402290.859375
-51.08,1637402290.875
-56.61,1637402290.890625
-61.96,1637402290.90625
-66.79,1637402290.921875
-70.99,1637402290.9375
-74.78,1637402290.953125
-78.69,1637402290.96875
-83.46,1637402290.984375
-89.83,1637402291.0
-98.21,1637402291.015625
-108.22,1637402291.03125
-118.57,1637402291.046875
-127.03,1637402291.0625
-131.0,1637402291.078125
-128.21,1637402291.09375
-117.59,1637402291.109375
-99.65,1637402291.125
-76.43,1637402291.140625
-50.86,1637402291.15625
-25.92,1637402291.171875
-3.87,1637402291.1875
14.12,1637402291.203125
27.85,1637402291.21875
37.79,1637402291.234375
44.64,1637402291.25
49.05,1637402291.265625
51.57,1637402291.28125
52.78,1637402291.296875
53.26,1637402291.3125
53.64,1637402291.328125
54.42,1637402291.34375
55.87,1637402291.359375
57.97,1637402291.375
60.44,1637402291.390625
62.93,1637402291.40625
65.07,1637402291.421875
66.71,1637402291.4375
67.8,1637402291.453125
68.37,1637402291.46875
68.48,1637402291.484375
68.07,1637402291.5
67.05,1637402291.515625
65.37,1637402291.53125
62.93,1637402291.546875
59.77,1637402291.5625
55.97,1637402291.578125
51.69,1637402291.59375
47.22,1637402291.609375
42.88,1637402291.625
39.01,1637402291.640625
35.8,1637402291.65625
33.27,1637402291.671875
31.21,1637402291.6875
29.34,1637402291.703125
27.35,1637402291.71875
25.11,1637402291.734375
22.63,1637402291.75
20.02,1637402291.765625
17.39,1637402291.78125
14.85,1637402291.796875
12.4,1637402291.8125
10.03,1637402291.828125
7.69,1637402291.84375
5.29,1637402291.859375
2.73,1637402291.875
-0.14,1637402291.890625
-3.43,1637402291.90625
-7.16,1637402291.921875
-11.19,1637402291.9375
-15.27,1637402291.953125
-19.08,1637402291.96875
-22.43,1637402291.984375
-25.34,1637402292.0
-28.09,1637402292.015625
-31.11,1637402292.03125
-34.76,1637402292.046875
-39.23,1637402292.0625
-44.35,1637402292.078125
-49.73,1637402292.09375
-54.88,1637402292.109375
-59.46,1637402292.125
-63.41,1637402292.140625
-67.02,1637402292.15625
-70.91,1637402292.171875
-75.79,1637402292.1875
-82.29,1637402292.203125
-90.59,1637402292.21875
-100.15,1637402292.234375
-109.56,1637402292.25
-116.68,1637402292.265625
-119.12,1637402292.28125
-115.0,1637402292.296875
-103.59,1637402292.3125
-85.68,1637402292.328125
-63.42,1637402292.34375
-39.65,1637402292.359375
-17.11,1637402292.375
2.21,1637402292.390625
17.37,1637402292.40625
28.38,1637402292.421875
35.83,1637402292.4375
40.53,1637402292.453125
43.22,1637402292.46875
44.53,1637402292.484375
44.96,1637402292.5
44.98,1637402292.515625
44.95,1637402292.53125
45.21,1637402292.546875
45.95,1637402292.5625
47.2,1637402292.578125
48.88,1637402292.59375
50.79,1637402292.609375
52.72,1637402292.625
54.52,1637402292.640625
56.09,1637402292.65625
57.39,1637402292.671875
58.34,1637402292.6875
58.77,1637402292.703125
58.46,1637402292.71875
57.17,1637402292.734375
54.76,1637402292.75
51.28,1637402292.765625
46.95,1637402292.78125
42.17,1637402292.796875
37.42,1637402292.8125
33.12,1637402292.828125
29.53,1637402292.84375
26.73,1637402292.859375
24.53,1637402292.875
22.6,1637402292.890625
20.52,1637402292.90625
17.97,1637402292.921875
14.85,1637402292.9375
11.29,1637402292.953125
7.59,1637402292.96875
4.11,1637402292.984375
1.03,1637402293.0
-1.71,1637402293.015625
-4.43,1637402293.03125
-7.56,1637402293.046875
-11.44,1637402293.0625
-16.2,1637402293.078125
-21.68,1637402293.09375
-27.55,1637402293.109375
-33.41,1637402293.125
-38.93,1637402293.140625
-43.95,1637402293.15625
-48.5,1637402293.171875
-52.77,1637402293.1875
-57.1,1637402293.203125
-61.96,1637402293.21875
-67.85,1637402293.234375
-75.03,1637402293.25
-83.29,1637402293.265625
-91.58,1637402293.28125
-98.12,1637402293.296875
-100.7,1637402293.3125
-97.49,1637402293.328125
-87.67,1637402293.34375
-71.86,1637402293.359375
-52.01,1637402293.375
-30.7,1637402293.390625
-10.42,1637402293.40625
7.09,1637402293.421875
21.06,1637402293.4375
31.43,1637402293.453125
38.51,1637402293.46875
42.66,1637402293.484375
44.22,1637402293.5
43.63,1637402293.515625
41.52,1637402293.53125
38.72,1637402293.546875
36.12,1637402293.5625
34.43,1637402293.578125
34.05,1637402293.59375
34.97,1637402293.609375
36.92,1637402293.625
39.45,1637402293.640625
42.15,1637402293.65625
44.66,1637402293.671875
46.75,1637402293.6875
48.25,1637402293.703125
49.05,1637402293.71875
49.02,1637402293.734375
48.08,1637402293.75
46.14,1637402293.765625
43.2,1637402293.78125
39.31,1637402293.796875
34.69,1637402293.8125
29.7,1637402293.828125
24.8,1637402293.84375
20.5,1637402293.859375
17.16,1637402293.875
14.88,1637402293.890625
13.44,1637402293.90625
12.35,1637402293.921875
10.98,1637402293.9375
8.89,1637402293.953125
5.97,1637402293.96875
2.45,1637402293.984375
-1.19,1637402294.0
-4.45,1637402294.015625
-7.06,1637402294.03125
-9.13,1637402294.046875
-11.05,1637402294.0625
-13.41,1637402294.078125
-16.63,1637402294.09375
-20.88,1637402294.109375
-25.96,1637402294.125
-31.4,1637402294.140625
-36.64,1637402294.15625
-41.32,1637402294.171875
-45.33,1637402294.1875
-48.91,1637402294.203125
-52.52,1637402294.21875
-56.73,1637402294.234375
-62.14,1637402294.25
-69.14,1637402294.265625
-77.74,1637402294.28125
-87.26,1637402294.296875
-96.25,1637402294.3125
-102.59,1637402294.328125
-104.03,1637402294.34375
-98.92,1637402294.359375
-86.91,1637402294.375
-69.19,1637402294.390625
-48.18,1637402294.40625
-26.73,1637402294.421875
-7.27,1637402294.4375
8.73,1637402294.453125
20.88,1637402294.46875
29.52,1637402294.484375
35.25,1637402294.5
38.63,1637402294.515625
40.08,1637402294.53125
40.0,1637402294.546875
38.9,1637402294.5625
37.36,1637402294.578125
35.99,1637402294.59375
35.23,1637402294.609375
35.31,1637402294.625
36.18,1637402294.640625
37.66,1637402294.65625
39.49,1637402294.671875
41.46,1637402294.6875
43.4,1637402294.703125
45.23,1637402294.71875
46.83,1637402294.734375
48.03,1637402294.75
48.57,1637402294.765625
48.17,1637402294.78125
46.6,1637402294.796875
43.85,1637402294.8125
40.13,1637402294.828125
35.83,1637402294.84375
31.42,1637402294.859375
27.29,1637402294.875
23.67,1637402294.890625
20.56,1637402294.90625
17.85,1637402294.921875
15.39,1637402294.9375
13.06,1637402294.953125
10.83,1637402294.96875
8.67,1637402294.984375
6.53,1637402295.0
4.29,1637402295.015625
1.84,1637402295.03125
-0.9,1637402295.046875
-3.88,1637402295.0625
-6.99,1637402295.078125
-10.04,1637402295.09375
-12.93,1637402295.109375
-15.74,1637402295.125
-18.67,1637402295.140625
-21.98,1637402295.15625
-25.89,1637402295.171875
-30.44,1637402295.1875
-35.48,1637402295.203125
-40.74,1637402295.21875
-45.91,1637402295.234375
-50.74,1637402295.25
-55.12,1637402295.265625
-59.12,1637402295.28125
-63.03,1637402295.296875
-67.35,1637402295.3125
-72.7,1637402295.328125
-79.64,1637402295.34375
-88.33,1637402295.359375
-98.17,1637402295.375
-107.66,1637402295.390625
-114.61,1637402295.40625
-116.67,1637402295.421875
-112.09,1637402295.4375
-100.37,1637402295.453125
-82.5,1637402295.46875
-60.67,1637402295.484375
-37.63,1637402295.5
-15.85,1637402295.515625
2.94,1637402295.53125
18.03,1637402295.546875
29.46,1637402295.5625
37.73,1637402295.578125
43.4,1637402295.59375
47.0,1637402295.609375
48.95,1637402295.625
49.73,1637402295.640625
49.83,1637402295.65625
49.79,1637402295.671875
50.09,1637402295.6875
51.0,1637402295.703125
52.56,1637402295.71875
54.57,1637402295.734375
56.7,1637402295.75
58.64,1637402295.765625
60.18,1637402295.78125
61.29,1637402295.796875
62.04,1637402295.8125
62.48,1637402295.828125
62.53,1637402295.84375
62.04,1637402295.859375
60.75,1637402295.875
58.51,1637402295.890625
55.33,1637402295.90625
51.41,1637402295.921875
47.11,1637402295.9375
42.78,1637402295.953125
38.65,1637402295.96875
34.8,1637402295.984375
31.18,1637402296.0
27.71,1637402296.015625
24.38,1637402296.03125
21.26,1637402296.046875
18.4,1637402296.0625
15.79,1637402296.078125
13.31,1637402296.09375
10.71,1637402296.109375
7.8,1637402296.125
4.49,1637402296.140625
0.92,1637402296.15625
-2.71,1637402296.171875
-6.18,1637402296.1875
-9.44,1637402296.203125
-12.68,1637402296.21875
-16.21,1637402296.234375
-20.34,1637402296.25
-25.17,1637402296.265625
-30.52,1637402296.28125
-36.01,1637402296.296875
-41.17,1637402296.3125
-45.7,1637402296.328125
-49.61,1637402296.34375
-53.19,1637402296.359375
-57.0,1637402296.375
-61.67,1637402296.390625
-67.73,1637402296.40625
-75.43,1637402296.421875
-84.5,1637402296.4375
-93.97,1637402296.453125
-102.14,1637402296.46875
-106.92,1637402296.484375
-106.33,1637402296.5
-99.17,1637402296.515625
-85.5,1637402296.53125
-66.72,1637402296.546875
-45.18,1637402296.5625
-23.51,1637402296.578125
-3.86,1637402296.59375
12.47,1637402296.609375
25.09,1637402296.625
34.21,1637402296.640625
40.32,1637402296.65625
43.9,1637402296.671875
45.4,1637402296.6875
45.3,1637402296.703125
44.22,1637402296.71875
42.85,1637402296.734375
41.88,1637402296.75
41.8,1637402296.765625
42.8,1637402296.78125
44.76,1637402296.796875
47.35,1637402296.8125
50.17,1637402296.828125
52.93,1637402296.84375
55.42,1637402296.859375
57.51,1637402296.875
59.07,1637402296.890625
59.91,1637402296.90625
59.82,1637402296.921875
58.65,1637402296.9375
56.39,1637402296.953125
53.23,1637402296.96875
49.49,1637402296.984375
45.5,1637402297.0
41.5,1637402297.015625
37.61,1637402297.03125
33.81,1637402297.046875
30.05,1637402297.0625
26.31,1637402297.078125
22.63,1637402297.09375
19.11,1637402297.109375
15.84,1637402297.125
12.85,1637402297.140625
10.09,1637402297.15625
7.47,1637402297.171875
4.89,1637402297.1875
2.26,1637402297.203125
-0.48,1637402297.21875
-3.36,1637402297.234375
-6.4,1637402297.25
-9.59,1637402297.265625
-12.95,1637402297.28125
-16.51,1637402297.296875
-20.35,1637402297.3125
-24.58,1637402297.328125
-29.31,1637402297.34375
-34.53,1637402297.359375
-40.11,1637402297.375
-45.78,1637402297.390625
-51.25,1637402297.40625
-56.3,1637402297.421875
-60.95,1637402297.4375
-65.45,1637402297.453125
-70.32,1637402297.46875
-76.19,1637402297.484375
-83.56,1637402297.5
-92.46,1637402297.515625
-102.18,1637402297.53125
-111.18,1637402297.546875
-117.33,1637402297.5625
-118.44,1637402297.578125
-113.03,1637402297.59375
-100.8,1637402297.609375
-82.85,1637402297.625
-61.36,1637402297.640625
-38.91,1637402297.65625
-17.79,1637402297.671875
0.44,1637402297.6875
15.14,1637402297.703125
26.34,1637402297.71875
34.44,1637402297.734375
39.99,1637402297.75
43.52,1637402297.765625
45.5,1637402297.78125
46.43,1637402297.796875
46.83,1637402297.8125
47.19,1637402297.828125
47.92,1637402297.84375
49.25,1637402297.859375
51.21,1637402297.875
53.64,1637402297.890625
56.26,1637402297.90625
58.8,1637402297.921875
61.08,1637402297.9375
63.04,1637402297.953125
64.66,1637402297.96875
65.89,1637402297.984375
66.57,1637402298.0
66.41,1637402298.015625
65.1,1637402298.03125
62.47,1637402298.046875
58.63,1637402298.0625
53.99,1637402298.078125
49.12,1637402298.09375
44.61,1637402298.109375
40.84,1637402298.125
37.84,1637402298.140625
35.35,1637402298.15625
32.98,1637402298.171875
30.39,1637402298.1875
27.43,1637402298.203125
24.23,1637402298.21875
21.02,1637402298.234375
18.04,1637402298.25
15.37,1637402298.265625
12.91,1637402298.28125
10.43,1637402298.296875
7.66,1637402298.3125
4.43,1637402298.328125
0.76,1637402298.34375
-3.23,1637402298.359375
-7.27,1637402298.375
-11.18,1637402298.390625
-14.85,1637402298.40625
-18.37,1637402298.421875
-21.97,1637402298.4375
-25.92,1637402298.453125
-30.44,1637402298.46875
-35.57,1637402298.484375
-41.16,1637402298.5
-46.88,1637402298.515625
-52.32,1637402298.53125
-57.2,1637402298.546875
-61.48,1637402298.5625
-65.45,1637402298.578125
-69.72,1637402298.59375
-75.03,1637402298.609375
-82.03,1637402298.625
-90.93,1637402298.640625
-101.23,1637402298.65625
-111.54,1637402298.671875
-119.81,1637402298.6875
-123.72,1637402298.703125
-121.36,1637402298.71875
-111.87,1637402298.734375
-95.79,1637402298.75
-74.93,1637402298.765625
-51.9,1637402298.78125
-29.35,1637402298.796875
-9.32,1637402298.8125
7.13,1637402298.828125
19.8,1637402298.84375
29.08,1637402298.859375
35.56,1637402298.875
39.76,1637402298.890625
42.13,1637402298.90625
43.13,1637402298.921875
43.26,1637402298.9375
43.12,1637402298.953125
43.24,1637402298.96875
43.98,1637402298.984375
45.45,1637402299.0
47.54,1637402299.015625
50.01,1637402299.03125
52.59,1637402299.046875
55.03,1637402299.0625
57.16,1637402299.078125
58.8,1637402299.09375
59.84,1637402299.109375
60.19,1637402299.125
59.8,1637402299.140625
58.64,1637402299.15625
56.73,1637402299.171875
54.08,1637402299.1875
50.74,1637402299.203125
46.9,1637402299.21875
42.81,1637402299.234375
38.82,1637402299.25
35.23,1637402299.265625
32.22,1637402299.28125
29.73,1637402299.296875
27.56,1637402299.3125
25.4,1637402299.328125
22.97,1637402299.34375
20.14,1637402299.359375
16.91,1637402299.375
13.4,1637402299.390625
9.81,1637402299.40625
6.32,1637402299.421875
3.04,1637402299.4375
-0.05,1637402299.453125
-3.13,1637402299.46875
-6.5,1637402299.484375
-10.48,1637402299.5
-15.28,1637402299.515625
-20.9,1637402299.53125
-27.08,1637402299.546875
-33.36,1637402299.5625
-39.27,1637402299.578125
-44.45,1637402299.59375
-48.85,1637402299.609375
-52.76,1637402299.625
-56.73,1637402299.640625
-61.44,1637402299.65625
-67.54,1637402299.671875
-75.36,1637402299.6875
-84.7,1637402299.703125
-94.65,1637402299.71875
-103.55,1637402299.734375
-109.3,1637402299.75
-109.9,1637402299.765625
-104.04,1637402299.78125
-91.66,1637402299.796875
-74.02,1637402299.8125
-53.31,1637402299.828125
-32.05,1637402299.84375
-12.34,1637402299.859375
4.49,1637402299.875
17.93,1637402299.890625
28.07,1637402299.90625
35.27,1637402299.921875
39.94,1637402299.9375
42.49,1637402299.953125
43.37,1637402299.96875
43.11,1637402299.984375
42.35,1637402300.0
41.71,1637402300.015625
41.69,1637402300.03125
42.58,1637402300.046875
44.43,1637402300.0625
47.03,1637402300.078125
50.03,1637402300.09375
53.03,1637402300.109375
55.7,1637402300.125
57.8,1637402300.140625
59.21,1637402300.15625
59.9,1637402300.171875
59.8,1637402300.1875
58.85,1637402300.203125
56.95,1637402300.21875
54.1,1637402300.234375
50.35,1637402300.25
45.93,1637402300.265625
41.18,1637402300.28125
36.53,1637402300.296875
32.32,1637402300.3125
28.72,1637402300.328125
25.6,1637402300.34375
22.66,1637402300.359375
19.51,1637402300.375
15.88,1637402300.390625
11.78,1637402300.40625
7.45,1637402300.421875
3.25,1637402300.4375
-0.49,1637402300.453125
-3.65,1637402300.46875
-6.38,1637402300.484375
-9.06,1637402300.5
-12.19,1637402300.515625
-16.22,1637402300.53125
-21.37,1637402300.546875
-27.53,1637402300.5625
-34.31,1637402300.578125
-41.12,1637402300.59375
-47.42,1637402300.609375
-52.85,1637402300.625
-57.45,1637402300.640625
-61.59,1637402300.65625
-65.94,1637402300.671875
-71.24,1637402300.6875
-78.16,1637402300.703125
-86.96,1637402300.71875
-97.24,1637402300.734375
-107.78,1637402300.75
-116.55,1637402300.765625
-121.2,1637402300.78125
-119.74,1637402300.796875
-111.22,1637402300.8125
-96.11,1637402300.828125
-76.2,1637402300.84375
-54.0,1637402300.859375
-32.01,1637402300.875
-12.09,1637402300.890625
4.79,1637402300.90625
18.42,1637402300.921875
29.05,1637402300.9375
37.02,1637402300.953125
42.71,1637402300.96875
46.45,1637402300.984375
48.67,1637402301.0
49.9,1637402301.015625
50.7,1637402301.03125
51.62,1637402301.046875
52.99,1637402301.0625
54.92,1637402301.078125
57.26,1637402301.09375
59.69,1637402301.109375
61.92,1637402301.125
63.76,1637402301.140625
65.24,1637402301.15625
66.45,1637402301.171875
67.44,1637402301.1875
68.13,1637402301.203125
68.27,1637402301.21875
67.52,1637402301.234375
65.66,1637402301.25
62.68,1637402301.265625
58.84,1637402301.28125
54.6,1637402301.296875
50.47,1637402301.3125
46.83,1637402301.328125
43.81,1637402301.34375
41.31,1637402301.359375
38.98,1637402301.375
36.41,1637402301.390625
33.31,1637402301.40625
29.63,1637402301.421875
25.61,1637402301.4375
21.67,1637402301.453125
18.2,1637402301.46875
15.34,1637402301.484375
12.88,1637402301.5
10.39,1637402301.515625
7.39,1637402301.53125
3.64,1637402301.546875
-0.82,1637402301.5625
-5.64,1637402301.578125
-10.46,1637402301.59375
-15.0,1637402301.609375
-19.25,1637402301.625
-23.43,1637402301.640625
-27.88,1637402301.65625
-32.86,1637402301.671875
-38.45,1637402301.6875
-44.47,1637402301.703125
-50.59,1637402301.71875
-56.4,1637402301.734375
-61.62,1637402301.75
-66.22,1637402301.765625
-70.5,1637402301.78125
-75.07,1637402301.796875
-80.67,1637402301.8125
-87.98,1637402301.828125
-97.3,1637402301.84375
-108.2,1637402301.859375
-119.36,1637402301.875
-128.65,1637402301.890625
-133.6,1637402301.90625
-132.03,1637402301.921875
-122.84,1637402301.9375
-106.39,1637402301.953125
-84.45,1637402301.96875
-59.66,1637402301.984375
-34.78,1637402302.0
-11.99,1637402302.015625
7.46,1637402302.03125
23.18,1637402302.046875
35.36,1637402302.0625
44.44,1637402302.078125
50.81,1637402302.09375
54.85,1637402302.109375
56.94,1637402302.125
57.65,1637402302.140625
57.68,1637402302.15625
57.8,1637402302.171875
58.58,1637402302.1875
60.3,1637402302.203125
62.8,1637402302.21875
65.63,1637402302.234375
68.27,1637402302.25
70.32,1637402302.265625
71.64,1637402302.28125
72.26,1637402302.296875
72.24,1637402302.3125
71.57,1637402302.328125
70.14,1637402302.34375
67.9,1637402302.359375
64.94,1637402302.375
61.49,1637402302.390625
57.82,1637402302.40625
54.14,1637402302.421875
50.5,1637402302.4375
46.82,1637402302.453125
43.06,1637402302.46875
39.23,1637402302.484375
35.46,1637402302.5
31.9,1637402302.515625
28.65,1637402302.53125
25.69,1637402302.546875
22.9,1637402302.5625
20.13,1637402302.578125
17.19,1637402302.59375
13.92,1637402302.609375
10.2,1637402302.625
6.01,1637402302.640625
1.47,1637402302.65625
-3.12,1637402302.671875
-7.44,1637402302.6875
-11.3,1637402302.703125
-14.78,1637402302.71875
-18.2,1637402302.734375
-22.01,1637402302.75
-26.5,1637402302.765625
-31.66,1637402302.78125
-37.11,1637402302.796875
-42.34,1637402302.8125
-46.95,1637402302.828125
-50.88,1637402302.84375
-54.46,1637402302.859375
-58.38,1637402302.875
-63.42,1637402302.890625
-70.23,1637402302.90625
-79.06,1637402302.921875
-89.47,1637402302.9375
-100.21,1637402302.953125
-109.29,1637402302.96875
-114.39,1637402302.984375
-113.51,1637402303.0
-105.67,1637402303.015625
-91.27,1637402303.03125
-72.07,1637402303.046875
-50.64,1637402303.0625
-29.54,1637402303.078125
-10.66,1637402303.09375
5.06,1637402303.109375
17.6,1637402303.125
27.43,1637402303.140625
35.1,1637402303.15625
41.02,1637402303.171875
45.44,1637402303.1875
48.55,1637402303.203125
50.62,1637402303.21875
52.04,1637402303.234375
53.29,1637402303.25
54.75,1637402303.265625
56.6,1637402303.28125
58.79,1637402303.296875
61.09,1637402303.3125
63.29,1637402303.328125
65.22,1637402303.34375
66.88,1637402303.359375
68.31,1637402303.375
69.47,1637402303.390625
70.2,1637402303.40625
70.2,1637402303.421875
69.16,1637402303.4375
66.87,1637402303.453125
63.4,1637402303.46875
59.09,1637402303.484375
54.49,1637402303.5
50.16,1637402303.515625
46.5,1637402303.53125
43.58,1637402303.546875
41.2,1637402303.5625
38.93,1637402303.578125
36.38,1637402303.59375
33.35,1637402303.609375
29.93,1637402303.625
26.38,1637402303.640625
23.03,1637402303.65625
20.06,1637402303.671875
17.42,1637402303.6875
14.84,1637402303.703125
12.02,1637402303.71875
8.7,1637402303.734375
4.87,1637402303.75
0.68,1637402303.765625
-3.61,1637402303.78125
-7.75,1637402303.796875
-11.62,1637402303.8125
-15.28,1637402303.828125
-18.96,1637402303.84375
-22.99,1637402303.859375
-27.6,1637402303.875
-32.92,1637402303.890625
-38.82,1637402303.90625
-44.99,1637402303.921875
-51.02,1637402303.9375
-56.57,1637402303.953125
-61.48,1637402303.96875
-65.93,1637402303.984375
-70.4,1637402304.0
-75.65,1637402304.015625
-82.43,1637402304.03125
-91.15,1637402304.046875
-101.46,1637402304.0625
-112.03,1637402304.078125
-120.61,1637402304.09375
-124.64,1637402304.109375
-121.96,1637402304.125
-111.65,1637402304.140625
-94.43,1637402304.15625
-72.45,1637402304.171875
-48.61,1637402304.1875
-25.7,1637402304.203125
-5.64,1637402304.21875
10.72,1637402304.234375
23.42,1637402304.25
33.0,1637402304.265625
40.05,1637402304.28125
45.01,1637402304.296875
48.25,1637402304.3125
50.11,1637402304.328125
51.02,1637402304.34375
51.5,1637402304.359375
52.07,1637402304.375
53.07,1637402304.390625
54.61,1637402304.40625
56.58,1637402304.421875
58.7,1637402304.4375
60.7,1637402304.453125
62.42,1637402304.46875
63.79,1637402304.484375
64.84,1637402304.5
65.51,1637402304.515625
65.63,1637402304.53125
64.94,1637402304.546875
63.16,1637402304.5625
60.21,1637402304.578125
56.25,1637402304.59375
51.67,1637402304.609375
47.0,1637402304.625
42.64,1637402304.640625
38.81,1637402304.65625
35.48,1637402304.671875
32.46,1637402304.6875
29.55,1637402304.703125
26.64,1637402304.71875
23.76,1637402304.734375
20.96,1637402304.75
18.24,1637402304.765625
15.47,1637402304.78125
12.42,1637402304.796875
8.89,1637402304.8125
4.86,1637402304.828125
0.54,1637402304.84375
-3.71,1637402304.859375
-7.56,1637402304.875
-10.86,1637402304.890625
-13.8,1637402304.90625
-16.79,1637402304.921875
-20.31,1637402304.9375
-24.66,1637402304.953125
-29.81,1637402304.96875
-35.39,1637402304.984375
-40.9,1637402305.0
-45.89,1637402305.015625
-50.16,1637402305.03125
-53.89,1637402305.046875
-57.52,1637402305.0625
-61.73,1637402305.078125
-67.13,1637402305.09375
-74.17,1637402305.109375
-82.79,1637402305.125
-92.28,1637402305.140625
-101.11,1637402305.15625
-107.13,1637402305.171875
-108.09,1637402305.1875
-102.35,1637402305.203125
-89.54,1637402305.21875
-70.88,1637402305.234375
-48.82,1637402305.25
-26.32,1637402305.265625
-5.94,1637402305.28125
10.81,1637402305.296875
23.57,1637402305.3125
32.82,1637402305.328125
39.32,1637402305.34375
43.72,1637402305.359375
46.41,1637402305.375
47.69,1637402305.390625
47.93,1637402305.40625
47.66,1637402305.421875
47.47,1637402305.4375
47.83,1637402305.453125
48.96,1637402305.46875
50.74,1637402305.484375
52.81,1637402305.5
54.82,1637402305.515625
56.5,1637402305.53125
57.79,1637402305.546875
58.77,1637402305.5625
59.47,1637402305.578125
59.8,1637402305.59375
59.51,1637402305.609375
58.25,1637402305.625
55.79,1637402305.640625
52.19,1637402305.65625
47.83,1637402305.671875
43.27,1637402305.6875
39.07,1637402305.703125
35.52,1637402305.71875
32.57,1637402305.734375
29.92,1637402305.75
27.21,1637402305.765625
24.27,1637402305.78125
21.14,1637402305.796875
18.05,1637402305.8125
15.21,1637402305.828125
12.73,1637402305.84375
10.48,1637402305.859375
8.24,1637402305.875
5.75,1637402305.890625
2.83,1637402305.90625
-0.58,1637402305.921875
-4.41,1637402305.9375
-8.48,1637402305.953125
-12.59,1637402305.96875
-16.55,1637402305.984375
-20.31,1637402306.0
-23.94,1637402306.015625
-27.67,1637402306.03125
-31.74,1637402306.046875
-36.32,1637402306.0625
-41.4,1637402306.078125
-46.73,1637402306.09375
-51.98,1637402306.109375
-56.82,1637402306.125
-61.11,1637402306.140625
-64.99,1637402306.15625
-68.96,1637402306.171875
-73.71,1637402306.1875
-79.89,1637402306.203125
-87.8,1637402306.21875
-96.97,1637402306.234375
-106.07,1637402306.25
-113.0,1637402306.265625
-115.43,1637402306.28125
-111.55,1637402306.296875
-100.67,1637402306.3125
-83.6,1637402306.328125
-62.37,1637402306.34375
-39.69,1637402306.359375
-18.13,1637402306.375
0.42,1637402306.390625
15.11,1637402306.40625
25.97,1637402306.421875
33.66,1637402306.4375
39.04,1637402306.453125
42.85,1637402306.46875
45.64,1637402306.484375
47.71,1637402306.5
49.29,1637402306.515625
50.58,1637402306.53125
51.81,1637402306.546875
53.17,1637402306.5625
54.73,1637402306.578125
56.4,1637402306.59375
57.92,1637402306.609375
59.05,1637402306.625
59.67,1637402306.640625
59.86,1637402306.65625
59.81,1637402306.671875
59.66,1637402306.6875
59.43,1637402306.703125
58.87,1637402306.71875
57.62,1637402306.734375
55.34,1637402306.75
51.91,1637402306.765625
47.52,1637402306.78125
42.65,1637402306.796875
37.87,1637402306.8125
33.68,1637402306.828125
30.32,1637402306.84375
27.7,1637402306.859375
25.53,1637402306.875
23.47,1637402306.890625
21.28,1637402306.90625
18.88,1637402306.921875
16.32,1637402306.9375
13.65,1637402306.953125
10.81,1637402306.96875
7.69,1637402306.984375
4.16,1637402307.0
0.25,1637402307.015625
-3.86,1637402307.03125
-7.89,1637402307.046875
-11.63,1637402307.0625
-15.02,1637402307.078125
-18.25,1637402307.09375
-21.63,1637402307.109375
-25.45,1637402307.125
-29.83,1637402307.140625
-34.65,1637402307.15625
-39.65,1637402307.171875
-44.49,1637402307.1875
-48.94,1637402307.203125
-52.91,1637402307.21875
-56.51,1637402307.234375
-60.06,1637402307.25
-64.06,1637402307.265625
-69.07,1637402307.28125
-75.57,1637402307.296875
-83.54,1637402307.3125
-92.19,1637402307.328125
-99.87,1637402307.34375
-104.33,1637402307.359375
-103.42,1637402307.375
-95.82,1637402307.390625
-81.65,1637402307.40625
-62.49,1637402307.421875
-40.9,1637402307.4375
-19.61,1637402307.453125
-0.75,1637402307.46875
14.56,1637402307.484375
26.12,1637402307.5
34.35,1637402307.515625
39.83,1637402307.53125
43.08,1637402307.546875
44.52,1637402307.5625
44.58,1637402307.578125
43.85,1637402307.59375
43.01,1637402307.609375
42.71,1637402307.625
43.32,1637402307.640625
44.89,1637402307.65625
47.07,1637402307.671875
49.35,1637402307.6875
51.27,1637402307.703125
52.64,1637402307.71875
53.54,1637402307.734375
54.19,1637402307.75
54.75,1637402307.765625
55.1,1637402307.78125
54.88,1637402307.796875
53.62,1637402307.8125
51.04,1637402307.828125
47.21,1637402307.84375
42.62,1637402307.859375
37.94,1637402307.875
33.8,1637402307.890625
30.5,1637402307.90625
27.97,1637402307.921875
25.84,1637402307.9375
23.7,1637402307.953125
21.28,1637402307.96875
18.57,1637402307.984375
15.77,1637402308.0
13.1,1637402308.015625
10.7,1637402308.03125
8.49,1637402308.046875
6.24,1637402308.0625
3.67,1637402308.078125
0.6,1637402308.09375
-3.0,1637402308.109375
-6.94,1637402308.125
-10.93,1637402308.140625
-14.7,1637402308.15625
-18.13,1637402308.171875
-21.3,1637402308.1875
-24.52,1637402308.203125
-28.18,1637402308.21875
-32.58,1637402308.234375
-37.79,1637402308.25
-43.62,1637402308.265625
-49.66,1637402308.28125
-55.46,1637402308.296875
-60.66,1637402308.3125
-65.17,1637402308.328125
-69.23,1637402308.34375
-73.34,1637402308.359375
-78.2,1637402308.375
-84.5,1637402308.390625
-92.55,1637402308.40625
-102.03,1637402308.421875
-111.69,1637402308.4375
-119.48,1637402308.453125
-123.01,1637402308.46875
-120.22,1637402308.484375
-110.16,1637402308.5
-93.36,1637402308.515625
-71.74,1637402308.53125
-48.01,1637402308.546875
-24.93,1637402308.5625
-4.55,1637402308.578125
12.03,1637402308.59375
24.67,1637402308.609375
33.8,1637402308.625
40.13,1637402308.640625
44.36,1637402308.65625
47.11,1637402308.671875
48.93,1637402308.6875
50.25,1637402308.703125
51.46,1637402308.71875
52.81,1637402308.734375
54.4,1637402308.75
56.19,1637402308.765625
58.01,1637402308.78125
59.66,1637402308.796875
60.95,1637402308.8125
61.83,1637402308.828125
62.37,1637402308.84375
62.67,1637402308.859375
62.83,1637402308.875
62.81,1637402308.890625
62.42,1637402308.90625
61.35,1637402308.921875
59.32,1637402308.9375
56.21,1637402308.953125
52.21,1637402308.96875
47.76,1637402308.984375
43.44,1637402309.0
39.75,1637402309.015625
36.88,1637402309.03125
34.73,1637402309.046875
32.94,1637402309.0625
31.11,1637402309.078125
28.95,1637402309.09375
26.41,1637402309.109375
23.59,1637402309.125
20.7,1637402309.140625
17.91,1637402309.15625
15.32,1637402309.171875
12.96,1637402309.1875
10.77,1637402309.203125
8.62,1637402309.21875
6.36,1637402309.234375
3.78,1637402309.25
0.7,1637402309.265625
-2.97,1637402309.28125
-7.16,1637402309.296875
-11.61,1637402309.3125
-16.01,1637402309.328125
-20.1,1637402309.34375
-23.83,1637402309.359375
-27.38,1637402309.375
-31.08,1637402309.390625
-35.28,1637402309.40625
-40.14,1637402309.421875
-45.52,1637402309.4375
-51.03,1637402309.453125
-56.25,1637402309.46875
-60.9,1637402309.484375
-65.01,1637402309.5
-68.91,1637402309.515625
-73.17,1637402309.53125
-78.44,1637402309.546875
-85.27,1637402309.5625
-93.84,1637402309.578125
-103.7,1637402309.59375
-113.59,1637402309.609375
-121.5,1637402309.625
-125.1,1637402309.640625
-122.46,1637402309.65625
-112.71,1637402309.671875
-96.48,1637402309.6875
-75.67,1637402309.703125
-52.93,1637402309.71875
-30.82,1637402309.734375
-11.2,1637402309.75
5.02,1637402309.765625
17.69,1637402309.78125
27.13,1637402309.796875
33.85,1637402309.8125
38.34,1637402309.828125
41.08,1637402309.84375
42.62,1637402309.859375
43.49,1637402309.875
44.24,1637402309.890625
45.27,1637402309.90625
46.81,1637402309.921875
48.88,1637402309.9375
51.3,1637402309.953125
53.8,1637402309.96875
56.13,1637402309.984375
58.14,1637402310.0
59.82,1637402310.015625
61.21,1637402310.03125
62.3,1637402310.046875
62.97,1637402310.0625
63.0,1637402310.078125
62.14,1637402310.09375
60.24,1637402310.109375
57.34,1637402310.125
53.67,1637402310.140625
49.54,1637402310.15625
45.26,1637402310.171875
41.05,1637402310.1875
37.04,1637402310.203125
33.28,1637402310.21875
29.82,1637402310.234375
26.62,1637402310.25
23.64,1637402310.265625
20.74,1637402310.28125
17.69,1637402310.296875
14.32,1637402310.3125
10.57,1637402310.328125
6.62,1637402310.34375
2.75,1637402310.359375
-0.73,1637402310.375
-3.78,1637402310.390625
-6.61,1637402310.40625
-9.71,1637402310.421875
-13.57,1637402310.4375
-18.41,1637402310.453125
-24.09,1637402310.46875
-30.15,1637402310.484375
-35.99,1637402310.5
-41.2,1637402310.515625
-45.69,1637402310.53125
-49.73,1637402310.546875
-53.77,1637402310.5625
-58.39,1637402310.578125
-64.09,1637402310.59375
-71.23,1637402310.609375
-79.85,1637402310.625
-89.4,1637402310.640625
-98.63,1637402310.65625
-105.64,1637402310.671875
-108.26,1637402310.6875
-104.73,1637402310.703125
-94.36,1637402310.71875
-77.91,1637402310.734375
-57.38,1637402310.75
-35.44,1637402310.765625
-14.61,1637402310.78125
3.37,1637402310.796875
17.73,1637402310.8125
28.54,1637402310.828125
36.32,1637402310.84375
41.65,1637402310.859375
45.03,1637402310.875
46.88,1637402310.890625
47.66,1637402310.90625
47.89,1637402310.921875
48.11,1637402310.9375
48.78,1637402310.953125
50.13,1637402310.96875
52.14,1637402310.984375
54.59,1637402311.0
57.2,1637402311.015625
59.71,1637402311.03125
61.98,1637402311.046875
63.97,1637402311.0625
65.67,1637402311.078125
67.0,1637402311.09375
67.76,1637402311.109375
67.63,1637402311.125
66.3,1637402311.140625
63.53,1637402311.15625
59.3,1637402311.171875
53.85,1637402311.1875
47.58,1637402311.203125
41.04,1637402311.21875
34.74,1637402311.234375
29.05,1637402311.25
24.14,1637402311.265625
19.94,1637402311.28125
16.22,1637402311.296875
12.65,1637402311.3125
8.96,1637402311.328125
4.98,1637402311.34375
0.75,1637402311.359375
-3.54,1637402311.375
-7.64,1637402311.390625
-11.34,1637402311.40625
-14.68,1637402311.421875
-17.9,1637402311.4375
-21.39,1637402311.453125
-25.57,1637402311.46875
-30.65,1637402311.484375
-36.56,1637402311.5
-42.94,1637402311.515625
-49.29,1637402311.53125
-55.14,1637402311.546875
-60.29,1637402311.5625
-64.88,1637402311.578125
-69.3,1637402311.59375
-74.15,1637402311.609375
-80.05,1637402311.625
-87.48,1637402311.640625
-96.59,1637402311.65625
-106.96,1637402311.671875
-117.42,1637402311.6875
-126.03,1637402311.703125
-130.46,1637402311.71875
-128.59,1637402311.734375
-119.33,1637402311.75
-103.07,1637402311.765625
-81.69,1637402311.78125
-58.0,1637402311.796875
-34.86,1637402311.8125
-14.4,1637402311.828125
2.4,1637402311.84375
15.59,1637402311.859375
25.78,1637402311.875
33.71,1637402311.890625
39.9,1637402311.90625
44.63,1637402311.921875
48.07,1637402311.9375
50.48,1637402311.953125
52.28,1637402311.96875
53.94,1637402311.984375
55.89,1637402312.0
58.32,1637402312.015625
61.13,1637402312.03125
63.99,1637402312.046875
66.56,1637402312.0625
68.57,1637402312.078125
70.01,1637402312.09375
70.98,1637402312.109375
71.59,1637402312.125
71.78,1637402312.140625
71.31,1637402312.15625
69.87,1637402312.171875
67.24,1637402312.1875
63.51,1637402312.203125
59.03,1637402312.21875
54.32,1637402312.234375
49.83,1637402312.25
45.77,1637402312.265625
42.14,1637402312.28125
38.75,1637402312.296875
35.44,1637402312.3125
32.14,1637402312.328125
28.88,1637402312.34375
25.75,1637402312.359375
22.79,1637402312.375
19.96,1637402312.390625
17.17,1637402312.40625
14.23,1637402312.421875
10.97,1637402312.4375
7.26,1637402312.453125
3.1,1637402312.46875
-1.38,1637402312.484375
-5.88,1637402312.5
-10.12,1637402312.515625
-13.91,1637402312.53125
-17.34,1637402312.546875
-20.76,1637402312.5625
-24.65,1637402312.578125
-29.39,1637402312.59375
-35.08,1637402312.609375
-41.44,1637402312.625
-47.93,1637402312.640625
-53.97,1637402312.65625
-59.17,1637402312.671875
-63.53,1637402312.6875
-67.46,1637402312.703125
-71.67,1637402312.71875
-77.02,1637402312.734375
-84.19,1637402312.75
-93.39,1637402312.765625
-103.98,1637402312.78125
-114.4,1637402312.796875
-122.31,1637402312.8125
-125.22,1637402312.828125
-121.25,1637402312.84375
-109.84,1637402312.859375
-91.98,1637402312.875
-69.95,1637402312.890625
-46.6,1637402312.90625
-24.48,1637402312.921875
-5.3,1637402312.9375
10.24,1637402312.953125
22.25,1637402312.96875
31.21,1637402312.984375
37.68,1637402313.0
42.13,1637402313.015625
44.97,1637402313.03125
46.62,1637402313.046875
47.54,1637402313.0625
48.23,1637402313.078125
49.13,1637402313.09375
50.55,1637402313.109375
52.63,1637402313.125
55.32,1637402313.140625
58.38,1637402313.15625
61.52,1637402313.171875
64.42,1637402313.1875
66.85,1637402313.203125
68.62,1637402313.21875
69.63,1637402313.234375
69.78,1637402313.25
68.96,1637402313.265625
67.08,1637402313.28125
64.08,1637402313.296875
60.05,1637402313.3125
55.23,1637402313.328125
50.04,1637402313.34375
44.96,1637402313.359375
40.39,1637402313.375
36.55,1637402313.390625
33.42,1637402313.40625
30.75,1637402313.421875
28.16,1637402313.4375
25.3,1637402313.453125
21.96,1637402313.46875
18.15,1637402313.484375
14.04,1637402313.5
9.89,1637402313.515625
5.91,1637402313.53125
2.15,1637402313.546875
-1.46,1637402313.5625
-5.17,1637402313.578125
-9.25,1637402313.59375
-13.94,1637402313.609375
-19.39,1637402313.625
-25.52,1637402313.640625
-32.11,1637402313.65625
-38.77,1637402313.671875
-45.1,1637402313.6875
-50.79,1637402313.703125
-55.81,1637402313.71875
-60.43,1637402313.734375
-65.26,1637402313.75
-71.07,1637402313.765625
-78.54,1637402313.78125
-87.89,1637402313.796875
-98.64,1637402313.8125
-109.35,1637402313.828125
-117.86,1637402313.84375
-121.74,1637402313.859375
-119.05,1637402313.875
-108.98,1637402313.890625
-92.21,1637402313.90625
-70.79,1637402313.921875
-47.44,1637402313.9375
-24.83,1637402313.953125
-4.89,1637402313.96875
11.48,1637402313.984375
24.32,1637402314.0
34.21,1637402314.015625
41.87,1637402314.03125
47.89,1637402314.046875
52.61,1637402314.0625
56.2,1637402314.078125
58.84,1637402314.09375
60.77,1637402314.109375
62.32,1637402314.125
63.82,1637402314.140625
65.46,1637402314.15625
67.21,1637402314.171875
68.87,1637402314.1875
70.25,1637402314.203125
71.25,1637402314.21875
71.97,1637402314.234375
72.62,1637402314.25
73.32,1637402314.265625
73.95,1637402314.28125
74.14,1637402314.296875
73.39,1637402314.3125
71.33,1637402314.328125
67.89,1637402314.34375
63.36,1637402314.359375
58.31,1637402314.375
53.4,1637402314.390625
49.11,1637402314.40625
45.66,1637402314.421875
42.96,1637402314.4375
40.69,1637402314.453125
38.48,1637402314.46875
36.0,1637402314.484375
33.1,1637402314.5
29.77,1637402314.515625
26.17,1637402314.53125
22.54,1637402314.546875
19.12,1637402314.5625
16.08,1637402314.578125
13.44,1637402314.59375
11.06,1637402314.609375
8.65,1637402314.625
5.83,1637402314.640625
2.32,1637402314.65625
-2.0,1637402314.671875
-6.95,1637402314.6875
-12.14,1637402314.703125
-17.13,1637402314.71875
-21.62,1637402314.734375
-25.64,1637402314.75
-29.53,1637402314.765625
-33.76,1637402314.78125
-38.69,1637402314.796875
-44.36,1637402314.8125
-50.45,1637402314.828125
-56.46,1637402314.84375
-61.98,1637402314.859375
-66.85,1637402314.875
-71.27,1637402314.890625
-75.69,1637402314.90625
-80.75,1637402314.921875
-87.04,1637402314.9375
-95.04,1637402314.953125
-104.78,1637402314.96875
-115.62,1637402314.984375
-126.07,1637402315.0
-133.82,1637402315.015625
-136.35,1637402315.03125
-131.66,1637402315.046875
-119.06,1637402315.0625
-99.57,1637402315.078125
-75.63,1637402315.09375
-50.35,1637402315.109375
-26.57,1637402315.125
-6.17,1637402315.140625
10.19,1637402315.15625
22.74,1637402315.171875
32.18,1637402315.1875
39.23,1637402315.203125
44.45,1637402315.21875
48.25,1637402315.234375
50.96,1637402315.25
52.95,1637402315.265625
54.6,1637402315.28125
56.27,1637402315.296875
58.18,1637402315.3125
60.37,1637402315.328125
62.7,1637402315.34375
64.97,1637402315.359375
66.98,1637402315.375
68.65,1637402315.390625
70.04,1637402315.40625
71.19,1637402315.421875
72.04,1637402315.4375
72.35,1637402315.453125
71.75,1637402315.46875
69.91,1637402315.484375
66.73,1637402315.5
62.42,1637402315.515625
57.5,1637402315.53125
52.55,1637402315.546875
48.04,1637402315.5625
44.17,1637402315.578125
40.82,1637402315.59375
37.71,1637402315.609375
34.55,1637402315.625
31.2,1637402315.640625
27.69,1637402315.65625
24.2,1637402315.671875
20.92,1637402315.6875
17.94,1637402315.703125
15.16,1637402315.71875
12.4,1637402315.734375
9.42,1637402315.75
6.05,1637402315.765625
2.27,1637402315.78125
-1.8,1637402315.796875
-6.01,1637402315.8125
-10.19,1637402315.828125
-14.31,1637402315.84375
-18.48,1637402315.859375
-22.9,1637402315.875
-27.83,1637402315.890625
-33.4,1637402315.90625
-39.48,1637402315.921875
-45.72,1637402315.9375
-51.6,1637402315.953125
-56.71,1637402315.96875
-60.9,1637402315.984375
-64.46,1637402316.0
-68.12,1637402316.015625
-72.81,1637402316.03125
-79.41,1637402316.046875
-88.28,1637402316.0625
-98.96,1637402316.078125
-109.97,1637402316.09375
-118.98,1637402316.109375
-123.37,1637402316.125
-120.93,1637402316.140625
-110.68,1637402316.15625
-93.23,1637402316.171875
-70.66,1637402316.1875
-45.87,1637402316.203125
-21.76,1637402316.21875
-0.49,1637402316.234375
16.86,1637402316.25
30.19,1637402316.265625
39.98,1637402316.28125
46.9,1637402316.296875
51.56,1637402316.3125
54.45,1637402316.328125
56.03,1637402316.34375
56.76,1637402316.359375
57.16,1637402316.375
57.7,1637402316.390625
58.7,1637402316.40625
60.25,1637402316.421875
62.17,1637402316.4375
64.18,1637402316.453125
65.96,1637402316.46875
67.34,1637402316.484375
68.33,1637402316.5
69.08,1637402316.515625
69.68,1637402316.53125
70.1,1637402316.546875
70.08,1637402316.5625
69.18,1637402316.578125
67.05,1637402316.59375
63.54,1637402316.609375
58.91,1637402316.625
53.68,1637402316.640625
48.51,1637402316.65625
43.92,1637402316.671875
40.09,1637402316.6875
36.89,1637402316.703125
33.98,1637402316.71875
31.03,1637402316.734375
27.88,1637402316.75
24.59,1637402316.765625
21.39,1637402316.78125
18.46,1637402316.796875
15.85,1637402316.8125
13.42,1637402316.828125
10.89,1637402316.84375
7.93,1637402316.859375
4.38,1637402316.875
0.25,1637402316.890625
-4.22,1637402316.90625
-8.75,1637402316.921875
-13.04,1637402316.9375
-17.02,1637402316.953125
-20.84,1637402316.96875
-24.83,1637402316.984375
-29.36,1637402317.0
-34.67,1637402317.015625
-40.7,1637402317.03125
-47.11,1637402317.046875
-53.43,1637402317.0625
-59.18,1637402317.078125
-64.13,1637402317.09375
-68.42,1637402317.109375
-72.49,1637402317.125
-77.07,1637402317.140625
-82.95,1637402317.15625
-90.74,1637402317.171875
-100.53,1637402317.1875
-111.57,1637402317.203125
-122.17,1637402317.21875
-129.89,1637402317.234375
-132.15,1637402317.25
-126.99,1637402317.265625
-113.81,1637402317.28125
-93.65,1637402317.296875
-68.96,1637402317.3125
-42.87,1637402317.328125
-18.28,1637402317.34375
2.73,1637402317.359375
19.26,1637402317.375
31.36,1637402317.390625
39.75,1637402317.40625
45.32,1637402317.421875
48.88,1637402317.4375
51.05,1637402317.453125
52.29,1637402317.46875
52.99,1637402317.484375
53.5,1637402317.5
54.19,1637402317.515625
55.32,1637402317.53125
57.0,1637402317.546875
59.09,1637402317.5625
61.32,1637402317.578125
63.39,1637402317.59375
65.12,1637402317.609375
66.5,1637402317.625
67.61,1637402317.640625
68.44,1637402317.65625
68.81,1637402317.671875
68.39,1637402317.6875
66.85,1637402317.703125
64.04,1637402317.71875
60.07,1637402317.734375
55.28,1637402317.75
50.12,1637402317.765625
44.98,1637402317.78125
40.12,1637402317.796875
35.71,1637402317.8125
31.85,1637402317.828125
28.55,1637402317.84375
25.74,1637402317.859375
23.2,1637402317.875
20.61,1637402317.890625
17.64,1637402317.90625
14.06,1637402317.921875
9.85,1637402317.9375
5.18,1637402317.953125
0.37,1637402317.96875
-4.25,1637402317.984375
-8.4,1637402318.0
-12.03,1637402318.015625
-15.27,1637402318.03125
-18.48,1637402318.046875
-22.1,1637402318.0625
-26.47,1637402318.078125
-31.69,1637402318.09375
-37.48,1637402318.109375
-43.36,1637402318.125
-48.82,1637402318.140625
-53.56,1637402318.15625
-57.69,1637402318.171875
-61.68,1637402318.1875
-66.2,1637402318.203125
-71.93,1637402318.21875
-79.28,1637402318.234375
-88.2,1637402318.25
-97.9,1637402318.265625
-106.83,1637402318.28125
-112.81,1637402318.296875
-113.57,1637402318.3125
-107.48,1637402318.328125
-94.15,1637402318.34375
-74.74,1637402318.359375
-51.62,1637402318.375
-27.67,1637402318.390625
-5.48,1637402318.40625
13.22,1637402318.421875
27.75,1637402318.4375
38.25,1637402318.453125
45.29,1637402318.46875
49.56,1637402318.484375
51.7,1637402318.5
52.3,1637402318.515625
51.93,1637402318.53125
51.17,1637402318.546875
50.56,1637402318.5625
50.53,1637402318.578125
51.26,1637402318.59375
52.74,1637402318.609375
54.68,1637402318.625
56.75,1637402318.640625
58.63,1637402318.65625
60.17,1637402318.671875
61.38,1637402318.6875
62.31,1637402318.703125
62.9,1637402318.71875
62.93,1637402318.734375
62.08,1637402318.75
60.04,1637402318.765625
56.75,1637402318.78125
52.45,1637402318.796875
47.64,1637402318.8125
42.9,1637402318.828125
38.65,1637402318.84375
35.05,1637402318.859375
32.01,1637402318.875
29.23,1637402318.890625
26.45,1637402318.90625
23.5,1637402318.921875
20.39,1637402318.9375
17.26,1637402318.953125
14.29,1637402318.96875
11.56,1637402318.984375
9.05,1637402319.0
6.6,1637402319.015625
3.98,1637402319.03125
1.04,1637402319.046875
-2.26,1637402319.0625
-5.79,1637402319.078125
-9.37,1637402319.09375
-12.79,1637402319.109375
-16.01,1637402319.125
-19.11,1637402319.140625
-22.3,1637402319.15625
-25.84,1637402319.171875
-29.9,1637402319.1875
-34.53,1637402319.203125
-39.59,1637402319.21875
-44.82,1637402319.234375
-49.89,1637402319.25
-54.58,1637402319.265625
-58.83,1637402319.28125
-62.79,1637402319.296875
-66.86,1637402319.3125
-71.57,1637402319.328125
-77.51,1637402319.34375
-85.05,1637402319.359375
-94.08,1637402319.375
-103.7,1637402319.390625
-112.24,1637402319.40625
-117.47,1637402319.421875
-117.26,1637402319.4375
-110.26,1637402319.453125
-96.41,1637402319.46875
-77.12,1637402319.484375
-54.78,1637402319.5
-32.08,1637402319.515625
-11.32,1637402319.53125
6.14,1637402319.546875
19.83,1637402319.5625
29.98,1637402319.578125
37.16,1637402319.59375
42.01,1637402319.609375
45.14,1637402319.625
47.09,1637402319.640625
48.35,1637402319.65625
49.28,1637402319.671875
50.19,1637402319.6875
51.24,1637402319.703125
52.5,1637402319.71875
53.96,1637402319.734375
55.53,1637402319.75
57.04,1637402319.765625
58.33,1637402319.78125
59.32,1637402319.796875
59.99,1637402319.8125
60.41,1637402319.828125
60.65,1637402319.84375
60.67,1637402319.859375
60.3,1637402319.875
59.23,1637402319.890625
57.17,1637402319.90625
53.97,1637402319.921875
49.78,1637402319.9375
45.0,1637402319.953125
40.22,1637402319.96875
35.97,1637402319.984375
32.52,1637402320.0
29.85,1637402320.015625
27.65,1637402320.03125
25.51,1637402320.046875
23.09,1637402320.0625
20.27,1637402320.078125
17.18,1637402320.09375
14.11,1637402320.109375
11.33,1637402320.125
8.98,1637402320.140625
7.0,1637402320.15625
5.14,1637402320.171875
3.09,1637402320.1875
0.63,1637402320.203125
-2.31,1637402320.21875
-5.62,1637402320.234375
-9.06,1637402320.25
-12.4,1637402320.265625
-15.5,1637402320.28125
-18.36,1637402320.296875
-21.16,1637402320.3125
-24.15,1637402320.328125
-27.58,1637402320.34375
-31.58,1637402320.359375
-36.11,1637402320.375
-40.92,1637402320.390625
-45.68,1637402320.40625
-50.07,1637402320.421875
-53.92,1637402320.4375
-57.34,1637402320.453125
-60.66,1637402320.46875
-64.44,1637402320.484375
-69.23,1637402320.5
-75.43,1637402320.515625
-82.97,1637402320.53125
-91.12,1637402320.546875
-98.45,1637402320.5625
-103.04,1637402320.578125
-102.99,1637402320.59375
-97.01,1637402320.609375
-84.96,1637402320.625
-67.94,1637402320.640625
-48.04,1637402320.65625
-27.66,1637402320.671875
-8.92,1637402320.6875
6.77,1637402320.703125
18.86,1637402320.71875
27.43,1637402320.734375
32.91,1637402320.75
35.88,1637402320.765625
36.9,1637402320.78125
36.56,1637402320.796875
35.47,1637402320.8125
34.23,1637402320.828125
33.35,1637402320.84375
33.22,1637402320.859375
34.01,1637402320.875
35.69,1637402320.890625
38.07,1637402320.90625
40.84,1637402320.921875
43.69,1637402320.9375
46.29,1637402320.953125
48.42,1637402320.96875
49.87,1637402320.984375
50.55,1637402321.0
50.35,1637402321.015625
49.27,1637402321.03125
47.34,1637402321.046875
44.69,1637402321.0625
41.52,1637402321.078125
38.07,1637402321.09375
34.57,1637402321.109375
31.19,1637402321.125
28.0,1637402321.140625
24.97,1637402321.15625
22.02,1637402321.171875
19.09,1637402321.1875
16.18,1637402321.203125
13.36,1637402321.21875
10.7,1637402321.234375
8.23,1637402321.25
5.83,1637402321.265625
3.34,1637402321.28125
0.6,1637402321.296875
-2.41,1637402321.3125
-5.56,1637402321.328125
-8.64,1637402321.34375
-11.5,1637402321.359375
-14.16,1637402321.375
-16.82,1637402321.390625
-19.79,1637402321.40625
-23.31,1637402321.421875
-27.48,1637402321.4375
-32.19,1637402321.453125
-37.17,1637402321.46875
-42.1,1637402321.484375
-46.72,1637402321.5
-50.91,1637402321.515625
-54.69,1637402321.53125
-58.34,1637402321.546875
-62.35,1637402321.5625
-67.35,1637402321.578125
-73.81,1637402321.59375
-81.78,1637402321.609375
-90.53,1637402321.625
-98.47,1637402321.640625
-103.45,1637402321.65625
-103.42,1637402321.671875
-97.12,1637402321.6875
-84.61,1637402321.703125
-67.32,1637402321.71875
-47.55,1637402321.734375
-27.74,1637402321.75
-9.85,1637402321.765625
5.06,1637402321.78125
16.72,1637402321.796875
25.38,1637402321.8125
31.53,1637402321.828125
35.62,1637402321.84375
38.12,1637402321.859375
39.49,1637402321.875
40.2,1637402321.890625
40.71,1637402321.90625
41.37,1637402321.921875
42.4,1637402321.9375
43.84,1637402321.953125
45.59,1637402321.96875
47.47,1637402321.984375
49.3,1637402322.0
50.94,1637402322.015625
52.37,1637402322.03125
53.62,1637402322.046875
54.7,1637402322.0625
55.5,1637402322.078125
55.78,1637402322.09375
55.25,1637402322.109375
53.69,1637402322.125
51.08,1637402322.140625
47.64,1637402322.15625
43.76,1637402322.171875
39.9,1637402322.1875
36.37,1637402322.203125
33.35,1637402322.21875
30.83,1637402322.234375
28.67,1637402322.25
26.72,1637402322.265625
24.83,1637402322.28125
22.92,1637402322.296875
20.92,1637402322.3125
18.84,1637402322.328125
16.71,1637402322.34375
14.58,1637402322.359375
12.53,1637402322.375
10.58,1637402322.390625
8.67,1637402322.40625
6.68,1637402322.421875
4.43,1637402322.4375
1.76,1637402322.453125
-1.37,1637402322.46875
-4.85,1637402322.484375
-8.45,1637402322.5
-11.9,1637402322.515625
-15.01,1637402322.53125
-17.77,1637402322.546875
-20.36,1637402322.5625
-23.09,1637402322.578125
-26.27,1637402322.59375
-30.06,1637402322.609375
-34.45,1637402322.625
-39.26,1637402322.640625
-44.17,1637402322.65625
-48.9,1637402322.671875
-53.29,1637402322.6875
-57.35,1637402322.703125
-61.27,1637402322.71875
-65.45,1637402322.734375
-70.4,1637402322.75
-76.63,1637402322.765625
-84.36,1637402322.78125
-93.25,1637402322.796875
-102.22,1637402322.8125
-109.45,1637402322.828125
-112.85,1637402322.84375
-110.66,1637402322.859375
-102.09,1637402322.875
-87.63,1637402322.890625
-68.96,1637402322.90625
-48.41,1637402322.921875
-28.34,1637402322.9375
-10.56,1637402322.953125
4.0,1637402322.96875
15.18,1637402322.984375
23.31,1637402323.0
28.98,1637402323.015625
32.73,1637402323.03125
35.04,1637402323.046875
36.33,1637402323.0625
37.03,1637402323.078125
37.55,1637402323.09375
38.26,1637402323.109375
39.4,1637402323.125
41.01,1637402323.140625
42.95,1637402323.15625
45.0,1637402323.171875
46.97,1637402323.1875
48.74,1637402323.203125
50.29,1637402323.21875
51.61,1637402323.234375
52.67,1637402323.25
53.32,1637402323.265625
53.4,1637402323.28125
52.77,1637402323.296875
51.36,1637402323.3125
49.21,1637402323.328125
46.46,1637402323.34375
43.28,1637402323.359375
39.91,1637402323.375
36.51,1637402323.390625
33.21,1637402323.40625
30.06,1637402323.421875
27.03,1637402323.4375
24.12,1637402323.453125
21.32,1637402323.46875
18.61,1637402323.484375
15.93,1637402323.5
13.15,1637402323.515625
10.17,1637402323.53125
6.91,1637402323.546875
3.45,1637402323.5625
-0.01,1637402323.578125
-3.25,1637402323.59375
-6.17,1637402323.609375
-8.87,1637402323.625
-11.68,1637402323.640625
-14.97,1637402323.65625
-18.99,1637402323.671875
-23.75,1637402323.6875
-28.99,1637402323.703125
-34.3,1637402323.71875
-39.32,1637402323.734375
-43.83,1637402323.75
-47.88,1637402323.765625
-51.75,1637402323.78125
-55.86,1637402323.796875
-60.73,1637402323.8125
-66.78,1637402323.828125
-74.15,1637402323.84375
-82.48,1637402323.859375
-90.78,1637402323.875
-97.41,1637402323.890625
-100.47,1637402323.90625
-98.3,1637402323.921875
-90.06,1637402323.9375
-76.15,1637402323.953125
-58.11,1637402323.96875
-38.22,1637402323.984375
-18.77,1637402324.0
-1.52,1637402324.015625
12.58,1637402324.03125
23.32,1637402324.046875
30.93,1637402324.0625
35.82,1637402324.078125
38.39,1637402324.09375
39.14,1637402324.109375
38.63,1637402324.125
37.57,1637402324.140625
36.7,1637402324.15625
36.58,1637402324.171875
37.46,1637402324.1875
39.28,1637402324.203125
41.76,1637402324.21875
44.52,1637402324.234375
47.28,1637402324.25
49.84,1637402324.265625
52.14,1637402324.28125
54.07,1637402324.296875
55.48,1637402324.3125
56.12,1637402324.328125
55.78,1637402324.34375
54.33,1637402324.359375
51.86,1637402324.375
48.63,1637402324.390625
45.0,1637402324.40625
41.3,1637402324.421875
37.73,1637402324.4375
34.33,1637402324.453125
31.07,1637402324.46875
27.92,1637402324.484375
24.85,1637402324.5
21.87,1637402324.515625
18.96,1637402324.53125
16.05,1637402324.546875
13.02,1637402324.5625
9.75,1637402324.578125
6.2,1637402324.59375
2.48,1637402324.609375
-1.25,1637402324.625
-4.83,1637402324.640625
-8.21,1637402324.65625
-11.56,1637402324.671875
-15.22,1637402324.6875
-19.56,1637402324.703125
-24.81,1637402324.71875
-30.89,1637402324.734375
-37.44,1637402324.75
-43.91,1637402324.765625
-49.82,1637402324.78125
-54.93,1637402324.796875
-59.38,1637402324.8125
-63.64,1637402324.828125
-68.39,1637402324.84375
-74.35,1637402324.859375
-81.98,1637402324.875
-91.32,1637402324.890625
-101.7,1637402324.90625
-111.68,1637402324.921875
-119.24,1637402324.9375
-122.2,1637402324.953125
-118.88,1637402324.96875
-108.68,1637402324.984375
-92.39,1637402325.0
-71.98,1637402325.015625
-50.02,1637402325.03125
-28.97,1637402325.046875
-10.58,1637402325.0625
4.37,1637402325.078125
15.91,1637402325.09375
24.59,1637402325.109375
31.1,1637402325.125
35.99,1637402325.140625
39.66,1637402325.15625
42.39,1637402325.171875
44.38,1637402325.1875
45.93,1637402325.203125
47.34,1637402325.21875
48.92,1637402325.234375
50.83,1637402325.25
53.09,1637402325.265625
55.55,1637402325.28125
57.98,1637402325.296875
60.18,1637402325.3125
62.01,1637402325.328125
63.39,1637402325.34375
64.24,1637402325.359375
64.39,1637402325.375
63.65,1637402325.390625
61.9,1637402325.40625
59.19,1637402325.421875
55.74,1637402325.4375
51.93,1637402325.453125
48.11,1637402325.46875
44.46,1637402325.484375
40.97,1637402325.5
37.49,1637402325.515625
33.86,1637402325.53125
30.02,1637402325.546875
26.08,1637402325.5625
22.33,1637402325.578125
19.2,1637402325.59375
17.14,1637402325.609375
16.52,1637402325.625
17.46,1637402325.640625
19.76,1637402325.65625
22.89,1637402325.671875
26.06,1637402325.6875
28.45,1637402325.703125
29.43,1637402325.71875
28.69,1637402325.734375
26.24,1637402325.75
22.41,1637402325.765625
17.69,1637402325.78125
12.63,1637402325.796875
7.71,1637402325.8125
3.22,1637402325.828125
-0.81,1637402325.84375
-4.64,1637402325.859375
-8.72,1637402325.875
-13.49,1637402325.890625
-19.2,1637402325.90625
-25.82,1637402325.921875
-33.03,1637402325.9375
-40.34,1637402325.953125
-47.31,1637402325.96875
-53.71,1637402325.984375
-59.6,1637402326.0
-65.37,1637402326.015625
-71.63,1637402326.03125
-79.11,1637402326.046875
-88.29,1637402326.0625
-99.03,1637402326.078125
-110.27,1637402326.09375
-119.97,1637402326.109375
-125.6,1637402326.125
-124.85,1637402326.140625
-116.51,1637402326.15625
-100.95,1637402326.171875
-80.02,1637402326.1875
-56.49,1637402326.203125
-33.16,1637402326.21875
-12.12,1637402326.234375
5.5,1637402326.25
19.46,1637402326.265625
30.04,1637402326.28125
37.7,1637402326.296875
42.92,1637402326.3125
46.18,1637402326.328125
48.0,1637402326.34375
49.01,1637402326.359375
49.78,1637402326.375
50.83,1637402326.390625
52.47,1637402326.40625
54.76,1637402326.421875
57.54,1637402326.4375
60.51,1637402326.453125
63.31,1637402326.46875
65.73,1637402326.484375
67.67,1637402326.5
69.18,1637402326.515625
70.31,1637402326.53125
70.99,1637402326.546875
71.02,1637402326.5625
70.1,1637402326.578125
67.99,1637402326.59375
64.69,1637402326.609375
60.49,1637402326.625
55.88,1637402326.640625
51.39,1637402326.65625
47.41,1637402326.671875
44.1,1637402326.6875
41.36,1637402326.703125
39.0,1637402326.71875
36.76,1637402326.734375
34.42,1637402326.75
31.8,1637402326.765625
28.82,1637402326.78125
25.49,1637402326.796875
22.0,1637402326.8125
18.62,1637402326.828125
15.61,1637402326.84375
13.08,1637402326.859375
10.87,1637402326.875
8.55,1637402326.890625
5.68,1637402326.90625
1.96,1637402326.921875
-2.54,1637402326.9375
-7.45,1637402326.953125
-12.25,1637402326.96875
-16.63,1637402326.984375
-20.59,1637402327.0
-24.47,1637402327.015625
-28.72,1637402327.03125
-33.66,1637402327.046875
-39.3,1637402327.0625
-45.36,1637402327.078125
-51.4,1637402327.09375
-57.04,1637402327.109375
-62.1,1637402327.125
-66.68,1637402327.140625
-71.13,1637402327.15625
-75.99,1637402327.171875
-81.87,1637402327.1875
-89.31,1637402327.203125
-98.55,1637402327.21875
-109.13,1637402327.234375
-119.71,1637402327.25
-128.08,1637402327.265625
-131.67,1637402327.28125
-128.33,1637402327.296875
-117.15,1637402327.3125
-98.91,1637402327.328125
-75.89,1637402327.34375
-51.16,1637402327.359375
-27.6,1637402327.375
-7.18,1637402327.390625
9.36,1637402327.40625
22.29,1637402327.421875
32.32,1637402327.4375
40.18,1637402327.453125
46.3,1637402327.46875
50.9,1637402327.484375
54.14,1637402327.5
56.34,1637402327.515625
57.91,1637402327.53125
59.36,1637402327.546875
61.03,1637402327.5625
63.06,1637402327.578125
65.34,1637402327.59375
67.62,1637402327.609375
69.69,1637402327.625
71.47,1637402327.640625
72.97,1637402327.65625
74.28,1637402327.671875
75.38,1637402327.6875
76.11,1637402327.703125
76.16,1637402327.71875
75.21,1637402327.734375
73.02,1637402327.75
69.68,1637402327.765625
65.49,1637402327.78125
60.91,1637402327.796875
56.4,1637402327.8125
52.28,1637402327.828125
48.64,1637402327.84375
45.44,1637402327.859375
42.55,1637402327.875
39.86,1637402327.890625
37.33,1637402327.90625
34.97,1637402327.921875
32.78,1637402327.9375
30.69,1637402327.953125
28.57,1637402327.96875
26.31,1637402327.984375
23.77,1637402328.0
20.96,1637402328.015625
17.93,1637402328.03125
14.83,1637402328.046875
11.79,1637402328.0625
8.87,1637402328.078125
6.02,1637402328.09375
3.09,1637402328.109375
-0.11,1637402328.125
-3.74,1637402328.140625
-7.8,1637402328.15625
-12.09,1637402328.171875
-16.33,1637402328.1875
-20.21,1637402328.203125
-23.6,1637402328.21875
-26.65,1637402328.234375
-29.75,1637402328.25
-33.43,1637402328.265625
-38.01,1637402328.28125
-43.55,1637402328.296875
-49.69,1637402328.3125
-55.86,1637402328.328125
-61.52,1637402328.34375
-66.43,1637402328.359375
-70.71,1637402328.375
-74.85,1637402328.390625
-79.52,1637402328.40625
-85.42,1637402328.421875
-93.07,1637402328.4375
-102.61,1637402328.453125
-113.53,1637402328.46875
-124.49,1637402328.484375
-133.35,1637402328.5
-137.56,1637402328.515625
-134.93,1637402328.53125
-124.35,1637402328.546875
-106.33,1637402328.5625
-82.93,1637402328.578125
-57.11,1637402328.59375
-31.88,1637402328.609375
-9.49,1637402328.625
8.93,1637402328.640625
23.25,1637402328.65625
33.98,1637402328.671875
41.77,1637402328.6875
47.22,1637402328.703125
50.83,1637402328.71875
53.09,1637402328.734375
54.52,1637402328.75
55.66,1637402328.765625
56.91,1637402328.78125
58.5,1637402328.796875
60.4,1637402328.8125
62.44,1637402328.828125
64.42,1637402328.84375
66.18,1637402328.859375
67.72,1637402328.875
69.14,1637402328.890625
70.55,1637402328.90625
71.95,1637402328.921875
73.16,1637402328.9375
73.8,1637402328.953125
73.41,1637402328.96875
71.62,1637402328.984375
68.33,1637402329.0
63.76,1637402329.015625
58.44,1637402329.03125
53.02,1637402329.046875
48.14,1637402329.0625
44.14,1637402329.078125
41.08,1637402329.09375
38.77,1637402329.109375
36.85,1637402329.125
34.97,1637402329.140625
32.85,1637402329.15625
30.38,1637402329.171875
27.59,1637402329.1875
24.65,1637402329.203125
21.83,1637402329.21875
19.3,1637402329.234375
17.14,1637402329.25
15.19,1637402329.265625
13.14,1637402329.28125
10.65,1637402329.296875
7.44,1637402329.3125
3.5,1637402329.328125
-0.97,1637402329.34375
-5.61,1637402329.359375
-10.09,1637402329.375
-14.18,1637402329.390625
-17.89,1637402329.40625
-21.4,1637402329.421875
-24.98,1637402329.4375
-28.91,1637402329.453125
-33.35,1637402329.46875
-38.33,1637402329.484375
-43.7,1637402329.5
-49.16,1637402329.515625
-54.36,1637402329.53125
-59.03,1637402329.546875
-63.05,1637402329.5625
-66.64,1637402329.578125
-70.35,1637402329.59375
-74.96,1637402329.609375
-81.27,1637402329.625
-89.68,1637402329.640625
-99.79,1637402329.65625
-110.19,1637402329.671875
-118.59,1637402329.6875
-122.36,1637402329.703125
-119.31,1637402329.71875
-108.47,1637402329.734375
-90.5,1637402329.75
-67.48,1637402329.765625
-42.33,1637402329.78125
-17.91,1637402329.796875
3.57,1637402329.8125
20.94,1637402329.828125
33.91,1637402329.84375
42.8,1637402329.859375
48.22,1637402329.875
50.87,1637402329.890625
51.54,1637402329.90625
50.99,1637402329.921875
49.98,1637402329.9375
49.17,1637402329.953125
49.01,1637402329.96875
49.72,1637402329.984375
51.25,1637402330.0
53.42,1637402330.015625
55.93,1637402330.03125
58.5,1637402330.046875
60.9,1637402330.0625
62.99,1637402330.078125
64.7,1637402330.09375
65.96,1637402330.109375
66.66,1637402330.125
66.63,1637402330.140625
65.62,1637402330.15625
63.42,1637402330.171875
59.95,1637402330.1875
55.41,1637402330.203125
50.29,1637402330.21875
45.22,1637402330.234375
40.81,1637402330.25
37.34,1637402330.265625
34.71,1637402330.28125
32.47,1637402330.296875
30.07,1637402330.3125
27.15,1637402330.328125
23.68,1637402330.34375
19.96,1637402330.359375
16.45,1637402330.375
13.5,1637402330.390625
11.18,1637402330.40625
9.25,1637402330.421875
7.27,1637402330.4375
4.78,1637402330.453125
1.47,1637402330.46875
-2.63,1637402330.484375
-7.26,1637402330.5
-11.95,1637402330.515625
-16.29,1637402330.53125
-20.07,1637402330.546875
-23.43,1637402330.5625
-26.82,1637402330.578125
-30.76,1637402330.59375
-35.59,1637402330.609375
-41.31,1637402330.625
-47.53,1637402330.640625
-53.65,1637402330.65625
-59.19,1637402330.671875
-63.93,1637402330.6875
-68.06,1637402330.703125
-72.08,1637402330.71875
-76.7,1637402330.734375
-82.65,1637402330.75
-90.45,1637402330.765625
-100.1,1637402330.78125
-110.79,1637402330.796875
-120.8,1637402330.8125
-127.72,1637402330.828125
-129.01,1637402330.84375
-122.89,1637402330.859375
-108.94,1637402330.875
-88.39,1637402330.890625
-63.76,1637402330.90625
-38.13,1637402330.921875
-14.24,1637402330.9375
6.07,1637402330.953125
22.04,1637402330.96875
33.79,1637402330.984375
41.92,1637402331.0
47.23,1637402331.015625
50.44,1637402331.03125
52.18,1637402331.046875
52.99,1637402331.0625
53.34,1637402331.078125
53.62,1637402331.09375
54.14,1637402331.109375
55.11,1637402331.125
56.6,1637402331.140625
58.56,1637402331.15625
60.85,1637402331.171875
63.26,1637402331.1875
65.58,1637402331.203125
67.66,1637402331.21875
69.39,1637402331.234375
70.68,1637402331.25
71.39,1637402331.265625
71.27,1637402331.28125
70.08,1637402331.296875
67.64,1637402331.3125
63.97,1637402331.328125
59.35,1637402331.34375
54.29,1637402331.359375
49.36,1637402331.375
44.98,1637402331.390625
41.34,1637402331.40625
38.33,1637402331.421875
35.67,1637402331.4375
33.0,1637402331.453125
30.1,1637402331.46875
26.9,1637402331.484375
23.5,1637402331.5
20.11,1637402331.515625
16.98,1637402331.53125
14.26,1637402331.546875
11.92,1637402331.5625
9.76,1637402331.578125
7.4,1637402331.59375
4.47,1637402331.609375
0.75,1637402331.625
-3.71,1637402331.640625
-8.62,1637402331.65625
-13.48,1637402331.671875
-17.87,1637402331.6875
-21.57,1637402331.703125
-24.7,1637402331.71875
-27.66,1637402331.734375
-30.97,1637402331.75
-35.08,1637402331.765625
-40.14,1637402331.78125
-45.95,1637402331.796875
-52.03,1637402331.8125
-57.79,1637402331.828125
-62.86,1637402331.84375
-67.21,1637402331.859375
-71.23,1637402331.875
-75.64,1637402331.890625
-81.23,1637402331.90625
-88.62,1637402331.921875
-97.96,1637402331.9375
-108.65,1637402331.953125
-119.23,1637402331.96875
-127.5,1637402331.984375
-131.0,1637402332.0
-127.67,1637402332.015625
-116.57,1637402332.03125
-98.32,1637402332.046875
-74.98,1637402332.0625
-49.47,1637402332.078125
-24.77,1637402332.09375
-3.09,1637402332.109375
14.36,1637402332.125
27.41,1637402332.140625
36.49,1637402332.15625
42.32,1637402332.171875
45.66,1637402332.1875
47.22,1637402332.203125
47.7,1637402332.21875
47.76,1637402332.234375
47.96,1637402332.25
48.7,1637402332.265625
50.16,1637402332.28125
52.29,1637402332.296875
