PPG GREEN,time
2096877.0,1637402255.25
2097533.0,1637402255.29
2098444.0,1637402255.329
2099586.0,1637402255.369
2100618.0,1637402255.41
2101748.0,1637402255.45
2102699.0,1637402255.489
2103787.0,1637402255.53
2104879.0,1637402255.569
2106154.0,1637402255.609
2107317.0,1637402255.651
2108714.0,1637402255.69
2109790.0,1637402255.73
2111458.0,1637402255.771
2112679.0,1637402255.81
2114244.0,1637402255.851
2115805.0,1637402255.891
2117473.0,1637402255.93
2118858.0,1637402255.97
2120532.0,1637402256.011
2121219.0,1637402256.051
2119830.0,1637402256.09
2118262.0,1637402256.131
2117499.0,1637402256.17
2117359.0,1637402256.21
2117337.0,1637402256.252
2117708.0,1637402256.291
2117917.0,1637402256.331
2117797.0,1637402256.372
2117921.0,1637402256.411
2117962.0,1637402256.452
2118590.0,1637402256.492
2119391.0,1637402256.531
2120257.0,1637402256.571
2120779.0,1637402256.612
2121837.0,1637402256.652
2122659.0,1637402256.691
2123687.0,1637402256.732
2124613.0,1637402256.771
2125464.0,1637402256.811
2126668.0,1637402256.854
2127817.0,1637402256.892
2128947.0,1637402256.932
2130243.0,1637402256.973
2131562.0,1637402257.012
2132949.0,1637402257.053
2134126.0,1637402257.093
2135407.0,1637402257.132
2136916.0,1637402257.172
2138240.0,1637402257.213
2138390.0,1637402257.253
2137082.0,1637402257.292
2135203.0,1637402257.333
2134301.0,1637402257.373
2134309.0,1637402257.413
2134174.0,1637402257.455
2134582.0,1637402257.493
2134743.0,1637402257.533
2134709.0,1637402257.574
2134958.0,1637402257.613
2134941.0,1637402257.654
2135282.0,1637402257.694
2136002.0,1637402257.733
2136917.0,1637402257.773
2137507.0,1637402257.854
2138424.0,1637402257.894
2138909.0,1637402257.934
2140099.0,1637402257.975
2140715.0,1637402258.014
2141596.0,1637402258.054
2142613.0,1637402258.096
2143787.0,1637402258.134
2145039.0,1637402258.174
2146169.0,1637402258.215
2147346.0,1637402258.254
2148500.0,1637402258.295
2149856.0,1637402258.335
2150664.0,1637402258.374
2151254.0,1637402258.414
2149735.0,1637402258.456
2148348.0,1637402258.496
2147424.0,1637402258.535
2147058.0,1637402258.576
2147150.0,1637402258.615
2146909.0,1637402258.655
2146906.0,1637402258.697
2146834.0,1637402258.735
2146919.0,1637402258.775
2146862.0,1637402258.816
2147123.0,1637402258.855
2147732.0,1637402258.896
2148531.0,1637402258.936
2149654.0,1637402258.975
2152511.0,1637402259.016
2156360.0,1637402259.057
2161708.0,1637402259.097
2165930.0,1637402259.136
2169729.0,1637402259.177
2172302.0,1637402259.216
2173912.0,1637402259.256
2176121.0,1637402259.298
2177332.0,1637402259.336
2177181.0,1637402259.376
2176379.0,1637402259.417
2176092.0,1637402259.456
2175908.0,1637402259.497
2174715.0,1637402259.538
2171681.0,1637402259.577
2169467.0,1637402259.617
2168505.0,1637402259.658
2168254.0,1637402259.698
2167790.0,1637402259.737
2167851.0,1637402259.778
2167867.0,1637402259.817
2167673.0,1637402259.857
2167344.0,1637402259.899
2167658.0,1637402259.937
2168159.0,1637402259.977
2168204.0,1637402260.019
2168954.0,1637402260.058
2169117.0,1637402260.099
2169245.0,1637402260.139
2169685.0,1637402260.178
2169967.0,1637402260.218
2170445.0,1637402260.259
2170902.0,1637402260.299
2171266.0,1637402260.338
2173111.0,1637402260.379
2173532.0,1637402260.418
2174091.0,1637402260.458
2174799.0,1637402260.539
2173431.0,1637402260.579
2175015.0,1637402260.5
2172314.0,1637402260.62
2171607.0,1637402260.7
2171770.0,1637402260.659
2171501.0,1637402260.74
2171810.0,1637402260.779
2172069.0,1637402260.86
2172109.0,1637402260.819
2172003.0,1637402260.9
2172153.0,1637402260.939
2172826.0,1637402260.98
2173359.0,1637402261.02
2174131.0,1637402261.06
2174764.0,1637402261.102
2175630.0,1637402261.14
2176320.0,1637402261.18
2176810.0,1637402261.221
2177527.0,1637402261.26
2178491.0,1637402261.301
2178477.0,1637402261.341
2177493.0,1637402261.38
2176564.0,1637402261.42
2175726.0,1637402261.462
2175364.0,1637402261.502
2175979.0,1637402261.541
2176600.0,1637402261.582
2177041.0,1637402261.621
2177355.0,1637402261.661
2177205.0,1637402261.703
2177441.0,1637402261.741
2178184.0,1637402261.781
2178949.0,1637402261.822
2180082.0,1637402261.861
2181219.0,1637402261.902
2182483.0,1637402261.943
2183535.0,1637402261.982
2184184.0,1637402262.022
2183672.0,1637402262.063
2182851.0,1637402262.103
2182407.0,1637402262.142
2182508.0,1637402262.183
2183062.0,1637402262.222
2183838.0,1637402262.262
2184434.0,1637402262.304
2184584.0,1637402262.342
2185158.0,1637402262.382
2186000.0,1637402262.424
2186649.0,1637402262.463
2187578.0,1637402262.504
2188992.0,1637402262.544
2190417.0,1637402262.583
2191543.0,1637402262.623
2192779.0,1637402262.664
2193277.0,1637402262.704
2191579.0,1637402262.743
2189729.0,1637402262.784
2188808.0,1637402262.823
2188109.0,1637402262.863
2188029.0,1637402262.906
2187812.0,1637402262.944
2187946.0,1637402262.984
2187793.0,1637402263.025
2187772.0,1637402263.064
2187654.0,1637402263.105
2187767.0,1637402263.145
2188437.0,1637402263.184
2188822.0,1637402263.224
2189397.0,1637402263.265
2190157.0,1637402263.305
2191168.0,1637402263.344
2191873.0,1637402263.386
2192722.0,1637402263.425
2193659.0,1637402263.465
2194734.0,1637402263.507
2196095.0,1637402263.545
2196799.0,1637402263.585
2198020.0,1637402263.626
2199244.0,1637402263.665
2200495.0,1637402263.706
2201956.0,1637402263.746
2203354.0,1637402263.786
2204696.0,1637402263.826
2205316.0,1637402263.867
2204055.0,1637402263.907
2202607.0,1637402263.946
2201941.0,1637402263.987
2201700.0,1637402264.026
2201588.0,1637402264.066
2201968.0,1637402264.108
2202547.0,1637402264.146
2203021.0,1637402264.187
2203440.0,1637402264.228
2204273.0,1637402264.267
2205164.0,1637402264.308
2206462.0,1637402264.348
2207640.0,1637402264.387
2208840.0,1637402264.427
2210217.0,1637402264.469
2211775.0,1637402264.508
2213303.0,1637402264.548
2215044.0,1637402264.589
2216494.0,1637402264.628
2218411.0,1637402264.668
2220185.0,1637402264.71
2222242.0,1637402264.748
2223928.0,1637402264.789
2225471.0,1637402264.831
2227284.0,1637402264.87
2229069.0,1637402264.911
2230917.0,1637402264.952
2232621.0,1637402264.991
2234520.0,1637402265.032
2236456.0,1637402265.073
2238245.0,1637402265.113
2239661.0,1637402265.153
2241233.0,1637402265.194
2242141.0,1637402265.233
2243360.0,1637402265.273
2244746.0,1637402265.315
2246253.0,1637402265.354
2247639.0,1637402265.394
2249187.0,1637402265.436
2250813.0,1637402265.472
2252141.0,1637402265.513
2253575.0,1637402265.554
2255209.0,1637402265.593
2256576.0,1637402265.633
2258256.0,1637402265.675
2259886.0,1637402265.714
2261656.0,1637402265.754
2263219.0,1637402265.795
2264876.0,1637402265.834
2266154.0,1637402265.873
2267821.0,1637402265.915
2269610.0,1637402265.953
2270950.0,1637402265.993
2272598.0,1637402266.034
2274188.0,1637402266.073
2275853.0,1637402266.113
2277505.0,1637402266.148
2279001.0,1637402266.187
2280687.0,1637402266.227
2282368.0,1637402266.268
2284107.0,1637402266.308
2285755.0,1637402266.347
2287230.0,1637402266.388
2288665.0,1637402266.427
2289391.0,1637402266.468
2290587.0,1637402266.509
2291916.0,1637402266.548
2293276.0,1637402266.588
2294448.0,1637402266.629
2296173.0,1637402266.668
2297291.0,1637402266.709
2298500.0,1637402266.749
2299692.0,1637402266.788
2300855.0,1637402266.825
2302067.0,1637402266.861
2303459.0,1637402266.901
2304571.0,1637402266.935
2305680.0,1637402266.973
2307076.0,1637402267.012
2308123.0,1637402267.053
2309374.0,1637402267.095
2310458.0,1637402267.133
2311707.0,1637402267.173
2313116.0,1637402267.215
2314102.0,1637402267.254
2315299.0,1637402267.295
2316555.0,1637402267.335
2317540.0,1637402267.372
2318893.0,1637402267.413
2320021.0,1637402267.454
2321205.0,1637402267.494
2322456.0,1637402267.533
2323849.0,1637402267.574
2325080.0,1637402267.613
2325854.0,1637402267.654
2326491.0,1637402267.695
2327332.0,1637402267.734
2328361.0,1637402267.774
2329495.0,1637402267.815
2330474.0,1637402267.854
2331730.0,1637402267.895
2332838.0,1637402267.935
2333814.0,1637402267.974
2335121.0,1637402268.014
2335904.0,1637402268.055
2337346.0,1637402268.095
2338182.0,1637402268.134
2339193.0,1637402268.173
2340569.0,1637402268.213
2341555.0,1637402268.253
2342779.0,1637402268.295
2343997.0,1637402268.333
2345140.0,1637402268.373
2346063.0,1637402268.415
2346910.0,1637402268.454
2348135.0,1637402268.495
2349631.0,1637402268.535
2350743.0,1637402268.572
2351796.0,1637402268.612
2352535.0,1637402268.653
2353630.0,1637402268.693
2354594.0,1637402268.725
2355463.0,1637402268.767
2356196.0,1637402268.806
2356506.0,1637402268.846
2356661.0,1637402268.888
2357240.0,1637402268.926
2357683.0,1637402268.966
2358319.0,1637402269.007
2359053.0,1637402269.046
2359837.0,1637402269.087
2360354.0,1637402269.127
2360905.0,1637402269.167
2361498.0,1637402269.207
2362403.0,1637402269.248
2363196.0,1637402269.288
2364092.0,1637402269.327
2364604.0,1637402269.368
2365516.0,1637402269.408
2366320.0,1637402269.443
2367037.0,1637402269.476
2367808.0,1637402269.515
2368508.0,1637402269.555
2369222.0,1637402269.596
2369930.0,1637402269.635
2370927.0,1637402269.676
2371733.0,1637402269.717
2372371.0,1637402269.754
2373230.0,1637402269.794
2373888.0,1637402269.833
2373888.0,1637402269.872
2374609.0,1637402269.911
2375389.0,1637402269.95
2374943.0,1637402269.989
2374568.0,1637402270.028
2374200.0,1637402270.067
2374437.0,1637402270.106
2375304.0,1637402270.184
2375430.0,1637402270.223
2375380.0,1637402270.262
2374809.0,1637402270.145
2375867.0,1637402270.34
2375918.0,1637402270.379
2375488.0,1637402270.301
2376002.0,1637402270.418
2376521.0,1637402270.457
2377208.0,1637402270.496
2377694.0,1637402270.535
2377970.0,1637402270.574
2378387.0,1637402270.613
2378703.0,1637402270.652
2380071.0,1637402270.73
2380571.0,1637402270.769
2379613.0,1637402270.691
2381092.0,1637402270.808
2381683.0,1637402270.847
2382448.0,1637402270.886
2382690.0,1637402270.925
2382312.0,1637402270.964
2380590.0,1637402271.003
2378890.0,1637402271.042
2377951.0,1637402271.081
2377026.0,1637402271.12
2376604.0,1637402271.159
2376304.0,1637402271.198
2374980.0,1637402271.276
2375654.0,1637402271.237
2373976.0,1637402271.315
2373902.0,1637402271.354
2373485.0,1637402271.393
2373328.0,1637402271.432
2373408.0,1637402271.471
2373761.0,1637402271.627
2373856.0,1637402271.666
2373695.0,1637402271.588
2374092.0,1637402271.705
2375294.0,1637402271.9
2375959.0,1637402271.939
2374995.0,1637402271.978
2374877.0,1637402271.822
2374079.0,1637402271.744
2374175.0,1637402271.783
2375068.0,1637402271.861
2372007.0,1637402272.017
2369228.0,1637402272.056
2367216.0,1637402272.095
2365812.0,1637402272.134
2364666.0,1637402272.173
2373428.0,1637402271.549
2373230.0,1637402271.51
2363953.0,1637402272.212
2362916.0,1637402272.251
2361507.0,1637402272.29
2360265.0,1637402272.329
2359149.0,1637402272.368
2358620.0,1637402272.407
2357409.0,1637402272.563
2357177.0,1637402272.602
2357228.0,1637402272.641
2357260.0,1637402272.68
2357561.0,1637402272.524
2358182.0,1637402272.446
2357896.0,1637402272.485
2357087.0,1637402272.719
2356947.0,1637402272.758
2357610.0,1637402272.836
2358105.0,1637402272.914
2358495.0,1637402272.953
2355826.0,1637402272.992
2351831.0,1637402273.031
2357938.0,1637402272.875
2357303.0,1637402272.797
2348408.0,1637402273.07
2346043.0,1637402273.109
2344467.0,1637402273.149
2343029.0,1637402273.189
2341895.0,1637402273.229
2340519.0,1637402273.269
2338835.0,1637402273.309
2337141.0,1637402273.349
2335986.0,1637402273.389
2335497.0,1637402273.429
2334897.0,1637402273.469
2334790.0,1637402273.509
2334375.0,1637402273.549
2333998.0,1637402273.589
2334158.0,1637402273.629
2333752.0,1637402273.669
2333969.0,1637402273.709
2334003.0,1637402273.749
2334108.0,1637402273.789
2334319.0,1637402273.829
2334627.0,1637402273.869
2335117.0,1637402273.909
2335370.0,1637402273.949
2335530.0,1637402273.989
2335812.0,1637402274.029
2333466.0,1637402274.069
2328939.0,1637402274.109
2325369.0,1637402274.149
2322649.0,1637402274.189
2320538.0,1637402274.229
2318984.0,1637402274.269
2317823.0,1637402274.309
2316261.0,1637402274.349
2314571.0,1637402274.389
2312891.0,1637402274.429
2311614.0,1637402274.469
2310885.0,1637402274.509
2310435.0,1637402274.549
2310161.0,1637402274.589
2309694.0,1637402274.629
2309434.0,1637402274.669
2309096.0,1637402274.709
2308998.0,1637402274.749
2308723.0,1637402274.789
2308842.0,1637402274.829
2308913.0,1637402274.869
2309247.0,1637402274.909
2309558.0,1637402274.949
2310009.0,1637402274.989
2310235.0,1637402275.029
2310811.0,1637402275.069
2311009.0,1637402275.109
2307959.0,1637402275.149
2303337.0,1637402275.189
2299315.0,1637402275.229
2296581.0,1637402275.269
2294441.0,1637402275.309
2292792.0,1637402275.349
2291373.0,1637402275.389
2289539.0,1637402275.429
2287837.0,1637402275.469
2285948.0,1637402275.509
2284961.0,1637402275.549
2284215.0,1637402275.589
2283591.0,1637402275.629
2283262.0,1637402275.669
2282971.0,1637402275.709
2282885.0,1637402275.749
2282690.0,1637402275.789
2282640.0,1637402275.829
2282545.0,1637402275.869
2282605.0,1637402275.909
2283153.0,1637402275.949
2283520.0,1637402275.989
2284033.0,1637402276.029
2284631.0,1637402276.069
2285437.0,1637402276.109
2285677.0,1637402276.149
2285176.0,1637402276.189
2280846.0,1637402276.229
2275641.0,1637402276.269
2271983.0,1637402276.309
2269120.0,1637402276.349
2267508.0,1637402276.389
2266094.0,1637402276.429
2264260.0,1637402276.469
2262386.0,1637402276.509
2260398.0,1637402276.549
2258968.0,1637402276.589
2257744.0,1637402276.629
2257065.0,1637402276.669
2256777.0,1637402276.709
2256533.0,1637402276.749
2256537.0,1637402276.789
2256151.0,1637402276.829
2255888.0,1637402276.869
2255915.0,1637402276.909
2255907.0,1637402276.949
2256596.0,1637402277.029
2256349.0,1637402276.989
2257332.0,1637402277.069
2257829.0,1637402277.109
2258594.0,1637402277.149
2259485.0,1637402277.189
2260108.0,1637402277.229
2260892.0,1637402277.269
2258969.0,1637402277.309
2253447.0,1637402277.349
2248324.0,1637402277.389
2245177.0,1637402277.429
2242879.0,1637402277.469
2240996.0,1637402277.509
2239763.0,1637402277.549
2237830.0,1637402277.589
2236052.0,1637402277.629
2234034.0,1637402277.669
2232607.0,1637402277.709
2231827.0,1637402277.749
2231558.0,1637402277.789
2231547.0,1637402277.829
2231447.0,1637402277.869
2231534.0,1637402277.909
2231534.0,1637402277.949
2231433.0,1637402277.989
2231760.0,1637402278.029
2232326.0,1637402278.069
2232795.0,1637402278.109
2233470.0,1637402278.149
2234252.0,1637402278.189
2235197.0,1637402278.229
2236078.0,1637402278.269
2236972.0,1637402278.309
2238091.0,1637402278.349
2238550.0,1637402278.389
2238550.0,1637402278.429
2234883.0,1637402278.469
2228985.0,1637402278.509
2224572.0,1637402278.549
2221744.0,1637402278.589
2219411.0,1637402278.629
2218026.0,1637402278.669
2216743.0,1637402278.709
2214970.0,1637402278.749
2212917.0,1637402278.789
2211339.0,1637402278.829
2210191.0,1637402278.869
2209820.0,1637402278.909
2209625.0,1637402278.949
2209667.0,1637402278.989
2209620.0,1637402279.029
2209749.0,1637402279.069
2209907.0,1637402279.109
2209992.0,1637402279.149
2210446.0,1637402279.189
2210928.0,1637402279.229
2211366.0,1637402279.269
2212469.0,1637402279.309
2213275.0,1637402279.349
2214246.0,1637402279.389
2215229.0,1637402279.429
2216392.0,1637402279.469
2217407.0,1637402279.509
2217704.0,1637402279.549
2213348.0,1637402279.589
2207097.0,1637402279.629
2202806.0,1637402279.669
2200122.0,1637402279.709
2198024.0,1637402279.749
2196719.0,1637402279.789
2196058.0,1637402279.829
2193411.0,1637402279.869
2191508.0,1637402279.909
2189389.0,1637402279.949
2188493.0,1637402279.989
2188089.0,1637402280.029
2187789.0,1637402280.069
2187782.0,1637402280.109
2187678.0,1637402280.149
2187692.0,1637402280.189
2188184.0,1637402280.229
2188370.0,1637402280.269
2188698.0,1637402280.309
2189523.0,1637402280.349
2190032.0,1637402280.389
2191143.0,1637402280.429
2192141.0,1637402280.469
2192828.0,1637402280.509
2194013.0,1637402280.549
2195300.0,1637402280.589
2195321.0,1637402280.629
2190571.0,1637402280.669
2184457.0,1637402280.709
2179923.0,1637402280.749
2177340.0,1637402280.789
2175291.0,1637402280.829
2174106.0,1637402280.869
2173260.0,1637402280.909
2171288.0,1637402280.949
2169207.0,1637402280.989
2167588.0,1637402281.029
2166707.0,1637402281.069
2166534.0,1637402281.109
2166547.0,1637402281.149
2166829.0,1637402281.189
2166872.0,1637402281.229
2167300.0,1637402281.269
2167775.0,1637402281.309
2168219.0,1637402281.349
2168616.0,1637402281.389
2169752.0,1637402281.429
2170567.0,1637402281.469
2171913.0,1637402281.509
2173072.0,1637402281.549
2174263.0,1637402281.589
2175383.0,1637402281.629
2176977.0,1637402281.669
2174487.0,1637402281.709
2167992.0,1637402281.762
2161723.0,1637402281.801
2157798.0,1637402281.841
2155041.0,1637402281.882
2153150.0,1637402281.921
2151768.0,1637402281.961
2150059.0,1637402282.003
2147742.0,1637402282.041
2145841.0,1637402282.081
2144475.0,1637402282.122
2143628.0,1637402282.161
2143635.0,1637402282.202
2144060.0,1637402282.242
2144087.0,1637402282.282
2144564.0,1637402282.322
2144665.0,1637402282.363
2145052.0,1637402282.402
2145486.0,1637402282.442
2146125.0,1637402282.483
2147136.0,1637402282.522
2148216.0,1637402282.562
2149193.0,1637402282.604
2150572.0,1637402282.642
2151832.0,1637402282.682
2153433.0,1637402282.723
2154612.0,1637402282.762
2152772.0,1637402282.803
2145661.0,1637402282.844
2138807.0,1637402282.883
2134435.0,1637402282.923
2131540.0,1637402282.964
2129073.0,1637402283.003
2127147.0,1637402283.043
2125104.0,1637402283.084
2122895.0,1637402283.123
2120528.0,1637402283.163
2119044.0,1637402283.205
2118403.0,1637402283.243
2118478.0,1637402283.283
2118498.0,1637402283.325
2118906.0,1637402283.364
2119027.0,1637402283.404
2119171.0,1637402283.445
2119728.0,1637402283.484
2120435.0,1637402283.524
2121173.0,1637402283.565
2122216.0,1637402283.605
2123488.0,1637402283.644
2124935.0,1637402283.685
2126409.0,1637402283.724
2127995.0,1637402283.764
2129532.0,1637402283.806
2131051.0,1637402283.844
2132862.0,1637402283.885
2131209.0,1637402283.926
2123537.0,1637402283.965
2116094.0,1637402284.005
2111596.0,1637402284.046
2108561.0,1637402284.085
2106045.0,1637402284.125
2104373.0,1637402284.166
2102349.0,1637402284.206
2100100.0,1637402284.245
2097722.0,1637402284.286
2096244.0,1637402284.325
2095765.0,1637402284.407
2095686.0,1637402284.365
2096365.0,1637402284.486
2095947.0,1637402284.446
2096729.0,1637402284.527
2097314.0,1637402284.566
2097594.0,1637402284.607
2098555.0,1637402284.647
2099574.0,1637402284.686
2100709.0,1637402284.726
2101976.0,1637402284.767
2103847.0,1637402284.807
2105579.0,1637402284.846
2108483.0,1637402284.888
2111191.0,1637402284.927
2113674.0,1637402284.967
2116056.0,1637402285.008
2117571.0,1637402285.047
2111995.0,1637402285.087
2103412.0,1637402285.128
2098089.0,1637402285.167
2094939.0,1637402285.208
2092937.0,1637402285.248
2091400.0,1637402285.287
2090459.0,1637402285.327
2088817.0,1637402285.369
2086963.0,1637402285.408
2085362.0,1637402285.448
2085008.0,1637402285.489
2085002.0,1637402285.528
2085464.0,1637402285.568
2086458.0,1637402285.61
2087055.0,1637402285.648
2087907.0,1637402285.688
2088683.0,1637402285.729
2089700.0,1637402285.768
2091039.0,1637402285.809
2092581.0,1637402285.849
2093861.0,1637402285.888
2095832.0,1637402285.929
2097514.0,1637402285.97
2099586.0,1637402286.009
2101316.0,1637402286.049
2103142.0,1637402286.09
2105301.0,1637402286.129
2107465.0,1637402286.169
2106445.0,1637402286.211
2098521.0,1637402286.249
2090920.0,1637402286.289
2086791.0,1637402286.33
2084365.0,1637402286.369
2082647.0,1637402286.41
2081808.0,1637402286.451
2080425.0,1637402286.49
2078544.0,1637402286.53
2076735.0,1637402286.571
2075783.0,1637402286.602
2075542.0,1637402286.642
2075868.0,1637402286.683
2076471.0,1637402286.722
2077393.0,1637402286.762
2078190.0,1637402286.804
2078970.0,1637402286.842
2080081.0,1637402286.882
2081324.0,1637402286.923
2082862.0,1637402286.962
2084547.0,1637402287.003
2086132.0,1637402287.043
2088233.0,1637402287.082
2090115.0,1637402287.122
2091985.0,1637402287.164
2094144.0,1637402287.203
2096406.0,1637402287.243
2095214.0,1637402287.284
2087746.0,1637402287.324
2081024.0,1637402287.364
2077251.0,1637402287.406
2075257.0,1637402287.445
2073050.0,1637402287.484
2071722.0,1637402287.525
2070787.0,1637402287.565
2069065.0,1637402287.606
2067275.0,1637402287.646
2066676.0,1637402287.685
2066692.0,1637402287.725
2067177.0,1637402287.766
2067852.0,1637402287.805
2069197.0,1637402287.837
2069843.0,1637402287.878
2070903.0,1637402287.917
2072188.0,1637402287.957
2073545.0,1637402287.999
2075341.0,1637402288.037
2077104.0,1637402288.077
2078815.0,1637402288.118
2081280.0,1637402288.157
2083370.0,1637402288.198
2081448.0,1637402288.239
2074192.0,1637402288.278
2068109.0,1637402288.318
2064660.0,1637402288.359
2062431.0,1637402288.399
2060756.0,1637402288.438
2059686.0,1637402288.479
2058602.0,1637402288.511
2057282.0,1637402288.546
2056054.0,1637402288.585
2055355.0,1637402288.624
2054936.0,1637402288.664
2055101.0,1637402288.705
2055625.0,1637402288.745
2056205.0,1637402288.786
2057140.0,1637402288.826
2058498.0,1637402288.865
2059616.0,1637402288.906
2060636.0,1637402288.947
2062204.0,1637402288.987
2063893.0,1637402289.026
2066218.0,1637402289.067
2066375.0,1637402289.106
2060365.0,1637402289.146
2054077.0,1637402289.188
2050380.0,1637402289.226
2047901.0,1637402289.266
2045598.0,1637402289.307
2044941.0,1637402289.347
2044058.0,1637402289.387
2043284.0,1637402289.428
2042822.0,1637402289.467
2042892.0,1637402289.507
2043434.0,1637402289.548
2044663.0,1637402289.588
2045645.0,1637402289.627
2047100.0,1637402289.668
2048413.0,1637402289.704
2049633.0,1637402289.744
2051512.0,1637402289.786
2053700.0,1637402289.825
2055409.0,1637402289.865
2052483.0,1637402289.906
2046277.0,1637402289.946
2042644.0,1637402289.987
2040404.0,1637402290.027
2038388.0,1637402290.064
2037398.0,1637402290.104
2037167.0,1637402290.146
2036322.0,1637402290.186
2035483.0,1637402290.225
2035462.0,1637402290.264
2035795.0,1637402290.299
2036764.0,1637402290.339
2038257.0,1637402290.381
2039629.0,1637402290.419
2040975.0,1637402290.459
2042518.0,1637402290.5
2044154.0,1637402290.539
2046176.0,1637402290.58
2048265.0,1637402290.621
2050424.0,1637402290.66
2052915.0,1637402290.7
2055297.0,1637402290.741
2058162.0,1637402290.781
2060964.0,1637402290.82
2063623.0,1637402290.861
2066529.0,1637402290.9
2069306.0,1637402290.941
2072405.0,1637402290.983
2075322.0,1637402291.022
2078359.0,1637402291.06
2081583.0,1637402291.097
2084571.0,1637402291.136
2087492.0,1637402291.171
2085024.0,1637402291.208
2080431.0,1637402291.245
2077915.0,1637402291.285
2077614.0,1637402291.327
2077448.0,1637402291.367
2077564.0,1637402291.4
2077564.0,1637402291.441
2078244.0,1637402291.48
2078477.0,1637402291.52
2078556.0,1637402291.562
2079041.0,1637402291.6
2080061.0,1637402291.64
2081679.0,1637402291.681
2083691.0,1637402291.721
2085466.0,1637402291.761
2087111.0,1637402291.802
2089136.0,1637402291.841
2090928.0,1637402291.881
2092844.0,1637402291.922
2095260.0,1637402291.962
2097457.0,1637402292.001
2099845.0,1637402292.042
2102276.0,1637402292.081
2105029.0,1637402292.12
2107274.0,1637402292.163
2109993.0,1637402292.198
2112254.0,1637402292.238
2115053.0,1637402292.279
2117725.0,1637402292.313
2120396.0,1637402292.348
2123076.0,1637402292.386
2121539.0,1637402292.425
2118248.0,1637402292.466
2116650.0,1637402292.509
2116606.0,1637402292.548
2116706.0,1637402292.587
2117928.0,1637402292.629
2118888.0,1637402292.668
2119615.0,1637402292.708
2119652.0,1637402292.75
2120330.0,1637402292.788
2121825.0,1637402292.828
2123419.0,1637402292.869
2125159.0,1637402292.908
2126766.0,1637402292.949
2128717.0,1637402292.989
2130496.0,1637402293.028
2132510.0,1637402293.068
2134187.0,1637402293.11
2136317.0,1637402293.149
2138459.0,1637402293.189
2140551.0,1637402293.226
2142938.0,1637402293.265
2144844.0,1637402293.305
2147253.0,1637402293.347
2149634.0,1637402293.386
2151441.0,1637402293.426
2149656.0,1637402293.467
2146881.0,1637402293.507
2145999.0,1637402293.548
2146086.0,1637402293.588
2147421.0,1637402293.627
2148595.0,1637402293.664
2149682.0,1637402293.738
2150263.0,1637402293.778
2150565.0,1637402293.818
2151454.0,1637402293.859
2152621.0,1637402293.898
2154386.0,1637402293.938
2155899.0,1637402293.98
2157450.0,1637402294.018
2159374.0,1637402294.058
2161014.0,1637402294.099
2162879.0,1637402294.138
2164629.0,1637402294.179
2166462.0,1637402294.219
2168542.0,1637402294.258
2170266.0,1637402294.298
2172285.0,1637402294.34
2174649.0,1637402294.38
2176527.0,1637402294.419
2178405.0,1637402294.46
2179191.0,1637402294.499
2176044.0,1637402294.54
2173303.0,1637402294.582
2172055.0,1637402294.62
2171981.0,1637402294.66
2172187.0,1637402294.702
2172328.0,1637402294.741
2172988.0,1637402294.78
2172485.0,1637402294.82
2173024.0,1637402294.859
2173165.0,1637402294.9
2173924.0,1637402294.941
2174992.0,1637402294.981
2176097.0,1637402295.02
2177296.0,1637402295.059
2178629.0,1637402295.098
2179803.0,1637402295.139
2181256.0,1637402295.18
2182558.0,1637402295.219
2184149.0,1637402295.259
2185660.0,1637402295.3
2187208.0,1637402295.339
2189200.0,1637402295.38
2190938.0,1637402295.42
2192628.0,1637402295.459
2194540.0,1637402295.499
2196192.0,1637402295.54
2196314.0,1637402295.58
2192847.0,1637402295.619
2189325.0,1637402295.661
2187919.0,1637402295.7
2187338.0,1637402295.74
2187030.0,1637402295.782
2186789.0,1637402295.82
2186769.0,1637402295.86
2186432.0,1637402295.902
2186012.0,1637402295.941
2186007.0,1637402295.982
2186339.0,1637402296.022
2187103.0,1637402296.06
2188105.0,1637402296.097
2189036.0,1637402296.138
2189960.0,1637402296.177
2191033.0,1637402296.217
2192085.0,1637402296.258
2193237.0,1637402296.297
2194355.0,1637402296.337
2195804.0,1637402296.379
2197195.0,1637402296.418
2198715.0,1637402296.458
2200456.0,1637402296.499
2201731.0,1637402296.538
2203248.0,1637402296.579
2205057.0,1637402296.619
2204382.0,1637402296.658
2201145.0,1637402296.698
2198622.0,1637402296.739
2197681.0,1637402296.777
2197269.0,1637402296.816
2197304.0,1637402296.857
2197744.0,1637402296.896
2197881.0,1637402296.936
2197444.0,1637402296.978
2197579.0,1637402297.017
2197694.0,1637402297.057
2198145.0,1637402297.098
2199154.0,1637402297.137
2199906.0,1637402297.178
2200677.0,1637402297.219
2202004.0,1637402297.258
2202833.0,1637402297.298
2203888.0,1637402297.341
2205045.0,1637402297.381
2206284.0,1637402297.42
2207483.0,1637402297.461
2208843.0,1637402297.493
2210236.0,1637402297.533
2211687.0,1637402297.575
2213700.0,1637402297.613
2215181.0,1637402297.653
2216762.0,1637402297.694
2216191.0,1637402297.733
2212902.0,1637402297.774
2210201.0,1637402297.815
2208860.0,1637402297.854
2208182.0,1637402297.894
2207914.0,1637402297.935
2207823.0,1637402297.975
2207617.0,1637402298.014
2207310.0,1637402298.055
2206968.0,1637402298.094
2206834.0,1637402298.134
2207324.0,1637402298.177
2207948.0,1637402298.213
2208398.0,1637402298.252
2209437.0,1637402298.287
2210152.0,1637402298.326
2210867.0,1637402298.364
2211737.0,1637402298.402
2212711.0,1637402298.441
2213944.0,1637402298.481
2215289.0,1637402298.523
2216515.0,1637402298.562
2218028.0,1637402298.601
2218028.0,1637402298.634
2219420.0,1637402298.673
2220761.0,1637402298.713
2222231.0,1637402298.755
2223418.0,1637402298.793
2225044.0,1637402298.834
2225301.0,1637402298.875
2222249.0,1637402298.914
2218934.0,1637402298.955
2217006.0,1637402298.995
2216098.0,1637402299.034
2215306.0,1637402299.074
2215097.0,1637402299.115
2214751.0,1637402299.155
2213793.0,1637402299.194
2213210.0,1637402299.236
2212952.0,1637402299.275
2212835.0,1637402299.315
2213275.0,1637402299.356
2213919.0,1637402299.395
2214346.0,1637402299.432
2215212.0,1637402299.465
2215768.0,1637402299.504
2216447.0,1637402299.545
2217114.0,1637402299.584
2217894.0,1637402299.621
2218851.0,1637402299.661
2220023.0,1637402299.702
2221055.0,1637402299.742
2222435.0,1637402299.772
2223780.0,1637402299.813
2224841.0,1637402299.852
2225882.0,1637402299.892
2223181.0,1637402299.934
2219534.0,1637402299.972
2216418.0,1637402300.012
2215214.0,1637402300.053
2214451.0,1637402300.093
2213709.0,1637402300.133
2213732.0,1637402300.174
2213087.0,1637402300.213
2211970.0,1637402300.253
2211359.0,1637402300.294
2211149.0,1637402300.334
2211429.0,1637402300.373
2211926.0,1637402300.414
2212243.0,1637402300.454
2212604.0,1637402300.489
2213393.0,1637402300.531
2213732.0,1637402300.564
2214565.0,1637402300.603
2215172.0,1637402300.645
2216116.0,1637402300.684
2217001.0,1637402300.725
2217867.0,1637402300.763
2219278.0,1637402300.802
2220224.0,1637402300.843
2221270.0,1637402300.884
2221012.0,1637402300.924
2216917.0,1637402300.954
2216917.0,1637402300.995
2212179.0,1637402301.035
2208929.0,1637402301.075
2206891.0,1637402301.116
2205168.0,1637402301.155
2203883.0,1637402301.195
2202544.0,1637402301.236
2200947.0,1637402301.275
2199444.0,1637402301.316
2198142.0,1637402301.357
2197259.0,1637402301.396
2197018.0,1637402301.436
2196815.0,1637402301.477
2196512.0,1637402301.517
2196365.0,1637402301.556
2196392.0,1637402301.597
2196594.0,1637402301.636
2196475.0,1637402301.677
2196871.0,1637402301.717
2197648.0,1637402301.755
2198030.0,1637402301.792
2198773.0,1637402301.825
2199470.0,1637402301.863
2200273.0,1637402301.904
2200915.0,1637402301.943
2202072.0,1637402301.982
2203123.0,1637402302.022
2203003.0,1637402302.063
2198474.0,1637402302.103
2193032.0,1637402302.143
2189397.0,1637402302.184
2186746.0,1637402302.224
2184463.0,1637402302.262
2182421.0,1637402302.3
2180349.0,1637402302.338
2178268.0,1637402302.378
2176452.0,1637402302.419
2174799.0,1637402302.458
2173655.0,1637402302.499
2173259.0,1637402302.54
2172982.0,1637402302.579
2172735.0,1637402302.619
2172528.0,1637402302.66
2172369.0,1637402302.7
2172383.0,1637402302.739
2172216.0,1637402302.78
2172459.0,1637402302.819
2172789.0,1637402302.859
2173105.0,1637402302.901
2173749.0,1637402302.94
2174443.0,1637402302.98
2175153.0,1637402303.018
2176112.0,1637402303.057
2177029.0,1637402303.094
2176827.0,1637402303.135
2172380.0,1637402303.168
2167776.0,1637402303.205
2164682.0,1637402303.244
2162526.0,1637402303.284
2160337.0,1637402303.324
2159007.0,1637402303.365
2157627.0,1637402303.403
2157627.0,1637402303.434
2156464.0,1637402303.476
2155024.0,1637402303.515
2154170.0,1637402303.555
2153705.0,1637402303.596
2153833.0,1637402303.635
2154136.0,1637402303.676
2154334.0,1637402303.716
2154693.0,1637402303.755
2155084.0,1637402303.795
2155693.0,1637402303.836
2156044.0,1637402303.876
2157018.0,1637402303.916
2158169.0,1637402303.957
2159425.0,1637402303.996
2160965.0,1637402304.036
2162410.0,1637402304.078
2163837.0,1637402304.111
2165620.0,1637402304.152
2167082.0,1637402304.194
2168559.0,1637402304.233
2169390.0,1637402304.267
2166714.0,1637402304.306
2163104.0,1637402304.343
2161652.0,1637402304.383
2160552.0,1637402304.424
2159715.0,1637402304.464
2159400.0,1637402304.503
2159151.0,1637402304.544
2158570.0,1637402304.583
2158105.0,1637402304.623
2158162.0,1637402304.665
2158387.0,1637402304.704
2159155.0,1637402304.745
2159942.0,1637402304.786
2160733.0,1637402304.825
2161792.0,1637402304.866
2162689.0,1637402304.906
2163845.0,1637402304.945
2164832.0,1637402304.985
2166254.0,1637402305.026
2167816.0,1637402305.066
2169369.0,1637402305.105
2170922.0,1637402305.147
2172388.0,1637402305.186
2174133.0,1637402305.226
2175820.0,1637402305.267
2177730.0,1637402305.306
2177956.0,1637402305.346
2175892.0,1637402305.387
2173671.0,1637402305.426
2173182.0,1637402305.466
2173334.0,1637402305.504
2173415.0,1637402305.543
2173688.0,1637402305.584
2173867.0,1637402305.64
2173887.0,1637402305.679
2173815.0,1637402305.719
2174424.0,1637402305.76
2174928.0,1637402305.799
2176221.0,1637402305.839
2176969.0,1637402305.881
2178219.0,1637402305.919
2179280.0,1637402305.959
2180604.0,1637402306.0
2181557.0,1637402306.039
2182847.0,1637402306.08
2184252.0,1637402306.12
2185541.0,1637402306.159
2186976.0,1637402306.2
2188669.0,1637402306.241
2190109.0,1637402306.28
2191778.0,1637402306.32
2193398.0,1637402306.361
2195335.0,1637402306.4
2196620.0,1637402306.44
2195509.0,1637402306.482
2193018.0,1637402306.52
2191550.0,1637402306.56
2190878.0,1637402306.601
2190248.0,1637402306.64
2190041.0,1637402306.679
2189903.0,1637402306.72
2189891.0,1637402306.759
2189670.0,1637402306.799
2189838.0,1637402306.841
2190256.0,1637402306.88
2190781.0,1637402306.92
2191657.0,1637402306.961
2192422.0,1637402306.998
2193265.0,1637402307.039
2194167.0,1637402307.081
2195027.0,1637402307.119
2195999.0,1637402307.159
2195862.0,1637402307.2
2196356.0,1637402307.236
2197110.0,1637402307.276
2198592.0,1637402307.317
2200244.0,1637402307.356
2201951.0,1637402307.396
2203588.0,1637402307.437
2205103.0,1637402307.477
2206819.0,1637402307.516
2206123.0,1637402307.557
2203696.0,1637402307.596
2201991.0,1637402307.636
2201694.0,1637402307.678
2201472.0,1637402307.717
2201582.0,1637402307.757
2201606.0,1637402307.798
2201692.0,1637402307.837
2201415.0,1637402307.878
2201720.0,1637402307.918
2202119.0,1637402307.958
2202715.0,1637402307.999
2203828.0,1637402308.04
2204241.0,1637402308.08
2205337.0,1637402308.119
2206051.0,1637402308.16
2207260.0,1637402308.2
2208414.0,1637402308.24
2209553.0,1637402308.282
2210771.0,1637402308.32
2211839.0,1637402308.361
2213226.0,1637402308.402
2214618.0,1637402308.441
2216187.0,1637402308.48
2217521.0,1637402308.521
2218898.0,1637402308.553
2220624.0,1637402308.593
2221050.0,1637402308.634
2219260.0,1637402308.674
2216580.0,1637402308.713
2215332.0,1637402308.754
2214500.0,1637402308.793
2214046.0,1637402308.833
2213395.0,1637402308.875
2213255.0,1637402308.913
2213217.0,1637402308.954
2212652.0,1637402308.995
2212448.0,1637402309.034
2212686.0,1637402309.075
2213193.0,1637402309.115
2213631.0,1637402309.154
2214016.0,1637402309.194
2214823.0,1637402309.235
2215446.0,1637402309.271
2216356.0,1637402309.303
2217074.0,1637402309.342
2218041.0,1637402309.381
2219076.0,1637402309.421
2220183.0,1637402309.463
2221054.0,1637402309.501
2222490.0,1637402309.54
2223831.0,1637402309.581
2224965.0,1637402309.62
2226403.0,1637402309.661
2226403.0,1637402309.693
2228153.0,1637402309.732
2229563.0,1637402309.772
2230992.0,1637402309.813
2229741.0,1637402309.853
2227520.0,1637402309.892
2225387.0,1637402309.934
2224772.0,1637402309.973
2224161.0,1637402310.013
2223634.0,1637402310.055
2223175.0,1637402310.093
2222545.0,1637402310.133
2221926.0,1637402310.174
2221551.0,1637402310.213
2221364.0,1637402310.254
2221439.0,1637402310.294
2221991.0,1637402310.333
2222221.0,1637402310.373
2222943.0,1637402310.41
2223531.0,1637402310.443
2224055.0,1637402310.48
2225072.0,1637402310.521
2225705.0,1637402310.561
2226582.0,1637402310.601
2227333.0,1637402310.643
2228605.0,1637402310.681
2229762.0,1637402310.722
2230791.0,1637402310.763
2232165.0,1637402310.802
2233154.0,1637402310.838
2232001.0,1637402310.878
2229442.0,1637402310.917
2227585.0,1637402310.957
2226321.0,1637402310.998
2225807.0,1637402311.038
2225235.0,1637402311.077
2225255.0,1637402311.119
2224625.0,1637402311.158
2224197.0,1637402311.198
2223687.0,1637402311.24
2223761.0,1637402311.278
2224040.0,1637402311.318
2224483.0,1637402311.359
2224745.0,1637402311.398
2225414.0,1637402311.439
2225873.0,1637402311.48
2226641.0,1637402311.519
2227665.0,1637402311.56
2228394.0,1637402311.602
2229143.0,1637402311.641
2230184.0,1637402311.68
2231358.0,1637402311.722
2232249.0,1637402311.761
2233504.0,1637402311.801
2234829.0,1637402311.843
2235701.0,1637402311.882
2233614.0,1637402311.922
2230701.0,1637402311.963
2228206.0,1637402312.002
2226735.0,1637402312.038
2225400.0,1637402312.078
2224520.0,1637402312.118
2223789.0,1637402312.158
2222961.0,1637402312.199
2221841.0,1637402312.239
2221188.0,1637402312.278
2220941.0,1637402312.319
2220834.0,1637402312.358
2221092.0,1637402312.398
2221038.0,1637402312.44
2221205.0,1637402312.478
2221381.0,1637402312.519
2221728.0,1637402312.56
2221926.0,1637402312.599
2222254.0,1637402312.64
2222565.0,1637402312.68
2223520.0,1637402312.719
2224075.0,1637402312.76
2224837.0,1637402312.802
2225648.0,1637402312.842
2226576.0,1637402312.881
2227502.0,1637402312.922
2228362.0,1637402312.961
2228053.0,1637402313.001
2224791.0,1637402313.043
2221627.0,1637402313.082
2219941.0,1637402313.122
2218405.0,1637402313.163
2217101.0,1637402313.2
2216570.0,1637402313.24
2215846.0,1637402313.281
2214814.0,1637402313.32
2213964.0,1637402313.36
2213239.0,1637402313.401
2213132.0,1637402313.441
2212975.0,1637402313.48
2213369.0,1637402313.521
2213522.0,1637402313.56
2213764.0,1637402313.6
2214305.0,1637402313.642
2214716.0,1637402313.68
2215231.0,1637402313.72
2216188.0,1637402313.762
2216848.0,1637402313.801
2218139.0,1637402313.841
2219112.0,1637402313.883
2220251.0,1637402313.922
2221189.0,1637402313.961
2222591.0,1637402314.003
2221982.0,1637402314.042
2218988.0,1637402314.082
2216410.0,1637402314.123
2214572.0,1637402314.163
2213495.0,1637402314.203
2212400.0,1637402314.245
2211850.0,1637402314.283
2211377.0,1637402314.322
2210727.0,1637402314.363
2210051.0,1637402314.395
2209789.0,1637402314.436
2209918.0,1637402314.476
2210049.0,1637402314.515
2210493.0,1637402314.555
2211151.0,1637402314.596
2211891.0,1637402314.636
2212613.0,1637402314.676
2213019.0,1637402314.717
2213934.0,1637402314.756
2214913.0,1637402314.796
2216106.0,1637402314.838
2217047.0,1637402314.876
2218202.0,1637402314.916
2219700.0,1637402314.957
2221115.0,1637402314.996
2222461.0,1637402315.037
2223647.0,1637402315.078
2225019.0,1637402315.114
2226275.0,1637402315.148
2226694.0,1637402315.186
2224454.0,1637402315.223
2222189.0,1637402315.263
2220810.0,1637402315.304
2220096.0,1637402315.344
2219683.0,1637402315.384
2219801.0,1637402315.426
2219652.0,1637402315.464
2219391.0,1637402315.504
2219181.0,1637402315.545
2219181.0,1637402315.584
2219576.0,1637402315.614
2219576.0,1637402315.654
2220013.0,1637402315.694
2220941.0,1637402315.734
2221535.0,1637402315.775
2222306.0,1637402315.814
2223132.0,1637402315.854
2224322.0,1637402315.895
2225419.0,1637402315.934
2226745.0,1637402315.974
2228284.0,1637402316.016
2229792.0,1637402316.054
2230927.0,1637402316.094
2234050.0,1637402316.174
2232650.0,1637402316.135
2236413.0,1637402316.215
2238058.0,1637402316.256
2239401.0,1637402316.295
2237767.0,1637402316.331
2234293.0,1637402316.372
2231512.0,1637402316.406
2229615.0,1637402316.442
2228705.0,1637402316.484
2227685.0,1637402316.523
2227536.0,1637402316.563
2226891.0,1637402316.605
2226598.0,1637402316.644
2226242.0,1637402316.684
2226158.0,1637402316.725
2226372.0,1637402316.764
2227068.0,1637402316.803
2227820.0,1637402316.844
2228062.0,1637402316.883
2228914.0,1637402316.923
2229556.0,1637402316.965
2230287.0,1637402317.004
2230965.0,1637402317.044
2232037.0,1637402317.085
2233129.0,1637402317.124
2234009.0,1637402317.164
2234965.0,1637402317.206
2236285.0,1637402317.244
2237279.0,1637402317.284
2238452.0,1637402317.325
2239609.0,1637402317.364
2240482.0,1637402317.405
2239062.0,1637402317.446
2236605.0,1637402317.485
2234698.0,1637402317.525
2233706.0,1637402317.564
2232746.0,1637402317.603
2232300.0,1637402317.642
2231848.0,1637402317.681
2231500.0,1637402317.72
2230632.0,1637402317.759
2229686.0,1637402317.798
2228907.0,1637402317.837
2228547.0,1637402317.876
2229096.0,1637402317.915
2228626.0,1637402317.993
2228191.0,1637402318.032
2229155.0,1637402317.954
2227856.0,1637402318.071
2227553.0,1637402318.11
2227197.0,1637402318.149
2226961.0,1637402318.188
2226892.0,1637402318.227
2226865.0,1637402318.266
2226889.0,1637402318.305
2226882.0,1637402318.344
2228220.0,1637402318.383
2230816.0,1637402318.422
2231760.0,1637402318.461
2229782.0,1637402318.5
2227219.0,1637402318.539
2225603.0,1637402318.578
2224234.0,1637402318.617
2223110.0,1637402318.656
2222025.0,1637402318.695
2221044.0,1637402318.734
2219685.0,1637402318.773
2218784.0,1637402318.812
2217451.0,1637402318.851
2216471.0,1637402318.929
2216618.0,1637402318.89
2216126.0,1637402318.968
2215843.0,1637402319.007
2215916.0,1637402319.046
2216023.0,1637402319.085
2215984.0,1637402319.124
2215917.0,1637402319.163
2216313.0,1637402319.202
2217322.0,1637402319.319
2216563.0,1637402319.241
2218431.0,1637402319.397
2217896.0,1637402319.358
2219050.0,1637402319.436
2219429.0,1637402319.475
2216746.0,1637402319.28
2220479.0,1637402319.514
2220519.0,1637402319.553
2217942.0,1637402319.592
2215578.0,1637402319.631
2213662.0,1637402319.67
2212782.0,1637402319.709
2211955.0,1637402319.748
2211143.0,1637402319.787
2210558.0,1637402319.826
2209968.0,1637402319.865
2209412.0,1637402319.904
2209080.0,1637402319.943
2208812.0,1637402319.982
2209074.0,1637402320.021
2209201.0,1637402320.06
2209354.0,1637402320.138
2209608.0,1637402320.177
2210022.0,1637402320.216
2209325.0,1637402320.099
2210589.0,1637402320.294
2210471.0,1637402320.255
2211481.0,1637402320.333
2212124.0,1637402320.372
2212870.0,1637402320.411
2213693.0,1637402320.45
2214591.0,1637402320.489
2215678.0,1637402320.528
2216370.0,1637402320.567
2217487.0,1637402320.606
2218303.0,1637402320.684
2218283.0,1637402320.645
2216526.0,1637402320.723
2214774.0,1637402320.762
2213558.0,1637402320.801
2213266.0,1637402320.84
2212964.0,1637402320.879
2213101.0,1637402320.918
2213016.0,1637402320.957
2212862.0,1637402320.996
2212477.0,1637402321.035
2212290.0,1637402321.074
2212879.0,1637402321.113
2213356.0,1637402321.152
2213685.0,1637402321.191
2214129.0,1637402321.23
2214830.0,1637402321.269
2215257.0,1637402321.308
2215930.0,1637402321.347
2216596.0,1637402321.386
2217347.0,1637402321.425
2218031.0,1637402321.464
2219329.0,1637402321.504
2220356.0,1637402321.544
2221223.0,1637402321.584
2222139.0,1637402321.624
2223259.0,1637402321.664
2224244.0,1637402321.704
2224149.0,1637402321.744
2222772.0,1637402321.784
2221235.0,1637402321.824
2220707.0,1637402321.864
2220226.0,1637402321.904
2220136.0,1637402321.944
2220145.0,1637402321.984
2220226.0,1637402322.024
2219864.0,1637402322.064
2219562.0,1637402322.104
2220002.0,1637402322.144
2220343.0,1637402322.184
2220784.0,1637402322.224
2221053.0,1637402322.264
2221975.0,1637402322.304
2222636.0,1637402322.344
2223295.0,1637402322.384
2223846.0,1637402322.424
2224741.0,1637402322.464
2225560.0,1637402322.504
2226250.0,1637402322.544
2227243.0,1637402322.584
2228164.0,1637402322.624
2229003.0,1637402322.664
2230026.0,1637402322.704
2230973.0,1637402322.744
2231803.0,1637402322.784
2232984.0,1637402322.824
2234217.0,1637402322.864
2234871.0,1637402322.904
2234008.0,1637402322.944
2232286.0,1637402322.984
2230965.0,1637402323.024
2230362.0,1637402323.064
2230027.0,1637402323.104
2229812.0,1637402323.144
2229678.0,1637402323.184
2229520.0,1637402323.224
2229351.0,1637402323.264
2228728.0,1637402323.304
2228714.0,1637402323.344
2228987.0,1637402323.384
2229076.0,1637402323.424
2229484.0,1637402323.464
2229602.0,1637402323.504
2230215.0,1637402323.544
2230236.0,1637402323.584
2230704.0,1637402323.624
2231308.0,1637402323.664
2231868.0,1637402323.704
2232377.0,1637402323.744
2232678.0,1637402323.784
2233500.0,1637402323.824
2234255.0,1637402323.864
2234775.0,1637402323.904
2235271.0,1637402323.944
2235167.0,1637402323.984
2233285.0,1637402324.024
2231335.0,1637402324.064
2230037.0,1637402324.104
2229641.0,1637402324.144
2229076.0,1637402324.184
2228743.0,1637402324.224
2228294.0,1637402324.264
2227750.0,1637402324.304
2226911.0,1637402324.344
2226751.0,1637402324.384
2226568.0,1637402324.424
2226566.0,1637402324.464
2226729.0,1637402324.504
2226855.0,1637402324.544
2227057.0,1637402324.584
2227160.0,1637402324.624
2227533.0,1637402324.664
2227737.0,1637402324.704
2228177.0,1637402324.744
2228521.0,1637402324.784
2229195.0,1637402324.824
2229673.0,1637402324.864
2230145.0,1637402324.904
2230600.0,1637402324.944
2231488.0,1637402324.984
2231178.0,1637402325.024
2228775.0,1637402325.064
2226333.0,1637402325.104
2224395.0,1637402325.144
2223076.0,1637402325.184
2221838.0,1637402325.224
2220611.0,1637402325.264
2219533.0,1637402325.304
2218556.0,1637402325.344
2217398.0,1637402325.384
2216300.0,1637402325.424
2215557.0,1637402325.464
2215213.0,1637402325.504
2214532.0,1637402325.544
2214413.0,1637402325.584
2213722.0,1637402325.624
2213665.0,1637402325.664
2213345.0,1637402325.704
2213101.0,1637402325.744
2213116.0,1637402325.784
2213116.0,1637402325.824
2213195.0,1637402325.864
2213403.0,1637402325.904
2213352.0,1637402325.944
2213552.0,1637402325.984
2213904.0,1637402326.024
2213963.0,1637402326.064
2214493.0,1637402326.104
2214568.0,1637402326.144
2215202.0,1637402326.184
2215454.0,1637402326.224
2213506.0,1637402326.264
2210141.0,1637402326.304
2207463.0,1637402326.344
2205416.0,1637402326.384
2204170.0,1637402326.424
2202493.0,1637402326.464
2201586.0,1637402326.504
2200207.0,1637402326.544
2198509.0,1637402326.584
2197331.0,1637402326.624
2196293.0,1637402326.664
2195708.0,1637402326.704
2194947.0,1637402326.744
2194788.0,1637402326.784
2194361.0,1637402326.824
2193829.0,1637402326.864
2193800.0,1637402326.904
2193526.0,1637402326.944
2193345.0,1637402326.984
2193591.0,1637402327.024
2193707.0,1637402327.064
2193906.0,1637402327.104
2194063.0,1637402327.144
2194543.0,1637402327.184
2195046.0,1637402327.224
2195390.0,1637402327.264
2196009.0,1637402327.304
2196664.0,1637402327.344
2196748.0,1637402327.384
2194169.0,1637402327.424
2190889.0,1637402327.464
2188585.0,1637402327.504
2186967.0,1637402327.544
2185590.0,1637402327.584
2184181.0,1637402327.624
2183155.0,1637402327.664
2182050.0,1637402327.704
2180885.0,1637402327.744
2180037.0,1637402327.784
2179259.0,1637402327.824
2178970.0,1637402327.864
2179018.0,1637402327.904
2179009.0,1637402327.944
2179162.0,1637402327.984
2179123.0,1637402328.024
2179266.0,1637402328.064
2179199.0,1637402328.104
2179525.0,1637402328.144
2179750.0,1637402328.184
2180483.0,1637402328.224
2180988.0,1637402328.264
2181732.0,1637402328.304
2182578.0,1637402328.344
2183162.0,1637402328.384
2184031.0,1637402328.424
2184905.0,1637402328.464
2185709.0,1637402328.504
2186653.0,1637402328.544
2187461.0,1637402328.584
2187919.0,1637402328.624
2185805.0,1637402328.664
2183280.0,1637402328.704
2181469.0,1637402328.744
2180443.0,1637402328.784
2180013.0,1637402328.824
2179257.0,1637402328.864
2178876.0,1637402328.904
2178237.0,1637402328.944
2177723.0,1637402328.984
2177172.0,1637402329.024
2177145.0,1637402329.064
2177312.0,1637402329.104
2177516.0,1637402329.144
2177706.0,1637402329.184
2178120.0,1637402329.224
2178593.0,1637402329.264
2178965.0,1637402329.304
2179733.0,1637402329.344
2180255.0,1637402329.384
2180945.0,1637402329.424
2181678.0,1637402329.504
2182599.0,1637402329.543
2183492.0,1637402329.583
2184362.0,1637402329.624
2185269.0,1637402329.663
2186566.0,1637402329.703
2187287.0,1637402329.745
2188567.0,1637402329.783
2189865.0,1637402329.823
2189410.0,1637402329.865
2187066.0,1637402329.904
2185275.0,1637402329.945
2184017.0,1637402329.985
2183386.0,1637402330.024
2183052.0,1637402330.062
2182600.0,1637402330.097
2182434.0,1637402330.137
2182007.0,1637402330.172
2181552.0,1637402330.211
2181108.0,1637402330.25
2181285.0,1637402330.29
2181623.0,1637402330.332
2181906.0,1637402330.371
2182380.0,1637402330.41
2183010.0,1637402330.452
2183536.0,1637402330.491
2183960.0,1637402330.531
2183960.0,1637402330.568
2184461.0,1637402330.607
2185034.0,1637402330.647
2186078.0,1637402330.688
2186855.0,1637402330.728
2187638.0,1637402330.767
2188751.0,1637402330.808
2189699.0,1637402330.847
2190795.0,1637402330.887
2191831.0,1637402330.929
2192861.0,1637402330.968
2193216.0,1637402331.008
2191411.0,1637402331.049
2188798.0,1637402331.088
2187144.0,1637402331.129
2186464.0,1637402331.169
2185597.0,1637402331.208
2185404.0,1637402331.248
2184858.0,1637402331.29
2184335.0,1637402331.33
2183429.0,1637402331.37
2183357.0,1637402331.411
2183288.0,1637402331.45
2183387.0,1637402331.491
2183618.0,1637402331.533
2184096.0,1637402331.571
2184149.0,1637402331.612
2184729.0,1637402331.653
2185287.0,1637402331.692
2185747.0,1637402331.733
2186319.0,1637402331.771
2187228.0,1637402331.811
2188087.0,1637402331.85
2188997.0,1637402331.892
2189917.0,1637402331.931
2190547.0,1637402331.971
2191747.0,1637402332.012
2192401.0,1637402332.052
2193414.0,1637402332.08
2194304.0,1637402332.122
2194670.0,1637402332.16
2192602.0,1637402332.2
2189939.0,1637402332.241
2188036.0,1637402332.28
2186633.0,1637402332.321
2185516.0,1637402332.362
2185020.0,1637402332.401
2184358.0,1637402332.441
2183315.0,1637402332.482
2182498.0,1637402332.522
2181545.0,1637402332.561
2180969.0,1637402332.602
2180934.0,1637402332.641
2181313.0,1637402332.681
2181428.0,1637402332.723
2181597.0,1637402332.761
2182096.0,1637402332.802
2182173.0,1637402332.838
2182692.0,1637402332.872
2182911.0,1637402332.911
2183513.0,1637402332.951
2183918.0,1637402332.99
2184723.0,1637402333.031
2185614.0,1637402333.072
2186390.0,1637402333.112
2187170.0,1637402333.152
2188175.0,1637402333.193
2188394.0,1637402333.233
2185989.0,1637402333.273
2182876.0,1637402333.315
2180816.0,1637402333.353
2179282.0,1637402333.393
2178286.0,1637402333.434
2177186.0,1637402333.473
2176421.0,1637402333.514
2175494.0,1637402333.554
2174290.0,1637402333.594
2173353.0,1637402333.634
2172952.0,1637402333.675
2172756.0,1637402333.714
2172626.0,1637402333.754
2172779.0,1637402333.795
2172659.0,1637402333.834
2172686.0,1637402333.874
2172915.0,1637402333.916
2173342.0,1637402333.955
2173532.0,1637402333.993
2174079.0,1637402334.031
2174471.0,1637402334.071
2175334.0,1637402334.112
2175960.0,1637402334.152
2176408.0,1637402334.191
2177305.0,1637402334.232
2178305.0,1637402334.273
2179001.0,1637402334.313
2180075.0,1637402334.352
2180982.0,1637402334.391
2180912.0,1637402334.43
2178524.0,1637402334.471
2175260.0,1637402334.512
2172952.0,1637402334.551
2171702.0,1637402334.591
2170537.0,1637402334.632
2169651.0,1637402334.671
2168894.0,1637402334.712
2167807.0,1637402334.752
2166781.0,1637402334.791
2165949.0,1637402334.831
2165424.0,1637402334.872
2165365.0,1637402334.912
2165419.0,1637402334.952
2165239.0,1637402334.993
2165371.0,1637402335.032
2165591.0,1637402335.072
2165880.0,1637402335.114
2166052.0,1637402335.15
2166303.0,1637402335.191
2166878.0,1637402335.232
2167515.0,1637402335.271
2168018.0,1637402335.312
2168736.0,1637402335.352
2169390.0,1637402335.391
2170329.0,1637402335.432
2170948.0,1637402335.473
2171800.0,1637402335.513
2172714.0,1637402335.552
2172873.0,1637402335.593
2170660.0,1637402335.633
2167730.0,1637402335.673
2165773.0,1637402335.714
2164627.0,1637402335.753
2163680.0,1637402335.793
2163337.0,1637402335.834
2162628.0,1637402335.873
2161817.0,1637402335.914
2161077.0,1637402335.954
2160177.0,1637402335.993
2160260.0,1637402336.033
2160246.0,1637402336.075
2160498.0,1637402336.114
2160598.0,1637402336.154
2161154.0,1637402336.192
2161292.0,1637402336.232
2161614.0,1637402336.272
2161873.0,1637402336.314
2162622.0,1637402336.352
2163234.0,1637402336.393
2163969.0,1637402336.434
2164865.0,1637402336.473
2165537.0,1637402336.514
2166328.0,1637402336.552
2167445.0,1637402336.592
2168334.0,1637402336.632
2169186.0,1637402336.673
2170110.0,1637402336.708
2168423.0,1637402336.748
2165617.0,1637402336.789
2163218.0,1637402336.828
2161705.0,1637402336.868
2160802.0,1637402336.91
2159721.0,1637402336.948
2158928.0,1637402336.988
2158115.0,1637402337.03
2157150.0,1637402337.069
2156294.0,1637402337.11
2156130.0,1637402337.15
2155862.0,1637402337.189
2155927.0,1637402337.229
2155867.0,1637402337.27
2156168.0,1637402337.31
2156170.0,1637402337.349
2156488.0,1637402337.391
2156870.0,1637402337.43
2157155.0,1637402337.471
2157608.0,1637402337.513
2157971.0,1637402337.552
2159003.0,1637402337.592
2159773.0,1637402337.633
2160589.0,1637402337.676
2161144.0,1637402337.716
2162265.0,1637402337.758
2162929.0,1637402337.794
2164062.0,1637402337.834
2164314.0,1637402337.875
2162177.0,1637402337.915
2159302.0,1637402337.954
2157615.0,1637402337.995
2156560.0,1637402338.034
2155746.0,1637402338.074
2155042.0,1637402338.116
2154528.0,1637402338.154
2153639.0,1637402338.195
2152860.0,1637402338.236
2152234.0,1637402338.275
2152147.0,1637402338.316
2152284.0,1637402338.356
2152212.0,1637402338.395
2152536.0,1637402338.435
2152652.0,1637402338.476
2153082.0,1637402338.516
2153417.0,1637402338.555
2153985.0,1637402338.593
2154326.0,1637402338.633
2154997.0,1637402338.673
2155482.0,1637402338.715
2156275.0,1637402338.753
2157199.0,1637402338.793
2157829.0,1637402338.835
2158814.0,1637402338.874
2159885.0,1637402338.915
2159556.0,1637402338.949
2157411.0,1637402338.988
2154604.0,1637402339.028
2152629.0,1637402339.069
2151630.0,1637402339.109
2150482.0,1637402339.148
2149538.0,1637402339.189
2148890.0,1637402339.229
2148114.0,1637402339.269
2147385.0,1637402339.31
2146691.0,1637402339.349
2146585.0,1637402339.389
2146636.0,1637402339.43
2146791.0,1637402339.469
2147102.0,1637402339.51
2147363.0,1637402339.55
2147616.0,1637402339.589
2148051.0,1637402339.629
2148464.0,1637402339.664
2149117.0,1637402339.704
2149756.0,1637402339.736
2150465.0,1637402339.775
2151122.0,1637402339.814
2152303.0,1637402339.854
2153020.0,1637402339.896
2154139.0,1637402339.934
2155158.0,1637402339.974
2156119.0,1637402340.015
2157360.0,1637402340.055
2157865.0,1637402340.096
2156284.0,1637402340.136
2153620.0,1637402340.175
2151954.0,1637402340.215
2150817.0,1637402340.255
2150817.0,1637402340.288
2150133.0,1637402340.328
2149677.0,1637402340.369
2149126.0,1637402340.408
2148426.0,1637402340.448
2147913.0,1637402340.49
2147624.0,1637402340.528
2147503.0,1637402340.568
2147507.0,1637402340.609
2148023.0,1637402340.648
2148365.0,1637402340.689
2148458.0,1637402340.73
2149079.0,1637402340.769
2149396.0,1637402340.809
2150081.0,1637402340.85
2150691.0,1637402340.89
2151373.0,1637402340.929
2152421.0,1637402340.966
2153139.0,1637402341.005
2154097.0,1637402341.046
2154945.0,1637402341.081
2156270.0,1637402341.116
2157349.0,1637402341.153
2158457.0,1637402341.194
2158714.0,1637402341.234
2156609.0,1637402341.275
2154676.0,1637402341.315
2153337.0,1637402341.354
2152478.0,1637402341.392
2151917.0,1637402341.418
2151859.0,1637402341.458
2151750.0,1637402341.497
2151383.0,1637402341.538
2151087.0,1637402341.577
2151023.0,1637402341.617
2151454.0,1637402341.698
2152232.0,1637402341.738
2151086.0,1637402341.659
2152714.0,1637402341.779
2153356.0,1637402341.818
2154012.0,1637402341.859
2154704.0,1637402341.899
2155461.0,1637402341.938
2156400.0,1637402341.978
2157377.0,1637402342.019
2158377.0,1637402342.059
2159491.0,1637402342.099
2160253.0,1637402342.139
2161548.0,1637402342.175
2162961.0,1637402342.216
2165061.0,1637402342.285
2163940.0,1637402342.252
2166378.0,1637402342.325
2166475.0,1637402342.366
2164646.0,1637402342.405
2162785.0,1637402342.446
2161735.0,1637402342.485
2161393.0,1637402342.514
2161393.0,1637402342.554
2160697.0,1637402342.596
2160430.0,1637402342.635
2160231.0,1637402342.675
2159750.0,1637402342.716
2159301.0,1637402342.755
2159205.0,1637402342.795
2159299.0,1637402342.837
2159726.0,1637402342.875
2159869.0,1637402342.915
2160744.0,1637402342.956
2161209.0,1637402342.995
2161760.0,1637402343.036
2162176.0,1637402343.077
2162896.0,1637402343.116
2165586.0,1637402343.237
2166542.0,1637402343.273
2167650.0,1637402343.305
2168604.0,1637402343.344
2169901.0,1637402343.384
2163591.0,1637402343.156
2170949.0,1637402343.426
2164392.0,1637402343.197
2172132.0,1637402343.465
2171659.0,1637402343.505
2169610.0,1637402343.544
2168321.0,1637402343.583
2167500.0,1637402343.624
2167189.0,1637402343.665
2166805.0,1637402343.704
2167089.0,1637402343.744
2166922.0,1637402343.779
2166651.0,1637402343.819
2166358.0,1637402343.859
2166501.0,1637402343.9
2166917.0,1637402343.939
2167432.0,1637402343.979
2168169.0,1637402344.021
2168639.0,1637402344.059
2170801.0,1637402344.179
2171549.0,1637402344.22
2173404.0,1637402344.3
2174394.0,1637402344.34
2175277.0,1637402344.381
2170232.0,1637402344.14
2169368.0,1637402344.099
2172524.0,1637402344.261
2176655.0,1637402344.421
2177618.0,1637402344.46
2178852.0,1637402344.5
2179638.0,1637402344.54
2178183.0,1637402344.577
2175858.0,1637402344.619
2174478.0,1637402344.654
2173699.0,1637402344.686
2173083.0,1637402344.726
2172733.0,1637402344.765
2172457.0,1637402344.806
2172279.0,1637402344.846
2171848.0,1637402344.879
2171848.0,1637402344.919
2171390.0,1637402344.96
2171275.0,1637402345.0
2171625.0,1637402345.039
2172090.0,1637402345.08
2172504.0,1637402345.119
2172639.0,1637402345.159
2173520.0,1637402345.201
2174141.0,1637402345.24
2174728.0,1637402345.28
2175507.0,1637402345.321
2176040.0,1637402345.36
2177050.0,1637402345.401
2178002.0,1637402345.441
2178885.0,1637402345.48
2180075.0,1637402345.52
2181204.0,1637402345.558
2182139.0,1637402345.594
2183064.0,1637402345.634
2181799.0,1637402345.665
2179117.0,1637402345.705
2177618.0,1637402345.745
2176672.0,1637402345.787
2175963.0,1637402345.825
2175931.0,1637402345.865
2175715.0,1637402345.907
2175330.0,1637402345.939
2175025.0,1637402345.98
2174570.0,1637402346.021
2174449.0,1637402346.06
2174641.0,1637402346.1
2174788.0,1637402346.141
2174969.0,1637402346.181
2175648.0,1637402346.22
2176181.0,1637402346.261
2176296.0,1637402346.3
2177158.0,1637402346.34
2177835.0,1637402346.382
2178462.0,1637402346.421
2179195.0,1637402346.461
2180010.0,1637402346.502
2180860.0,1637402346.541
2181717.0,1637402346.582
2183062.0,1637402346.622
2181778.0,1637402346.662
2179063.0,1637402346.7
2175287.0,1637402346.777
2177043.0,1637402346.737
2174423.0,1637402346.81
2173556.0,1637402346.851
2172842.0,1637402346.887
2172067.0,1637402346.925
2171627.0,1637402346.967
2170745.0,1637402347.006
2170205.0,1637402347.045
2170117.0,1637402347.087
2170180.0,1637402347.126
2170544.0,1637402347.167
2170337.0,1637402347.209
2170727.0,1637402347.248
2171284.0,1637402347.288
2171679.0,1637402347.329
2172164.0,1637402347.368
2172814.0,1637402347.408
2173148.0,1637402347.449
2173910.0,1637402347.488
2174817.0,1637402347.528
2175564.0,1637402347.57
2176642.0,1637402347.608
2177486.0,1637402347.648
2177696.0,1637402347.689
2175223.0,1637402347.728
2172192.0,1637402347.769
2170067.0,1637402347.81
2169043.0,1637402347.849
2167865.0,1637402347.889
2167131.0,1637402347.93
2166594.0,1637402347.966
2165453.0,1637402348.005
2164201.0,1637402348.047
2163713.0,1637402348.086
2163216.0,1637402348.126
2163046.0,1637402348.168
2162777.0,1637402348.207
2163239.0,1637402348.246
2163422.0,1637402348.288
2163550.0,1637402348.327
2163851.0,1637402348.368
2164089.0,1637402348.408
2164287.0,1637402348.447
2164717.0,1637402348.488
2165484.0,1637402348.527
2166133.0,1637402348.566
2166769.0,1637402348.605
2167773.0,1637402348.647
2166467.0,1637402348.686
2162856.0,1637402348.726
2159828.0,1637402348.768
2157732.0,1637402348.806
2156318.0,1637402348.846
2155357.0,1637402348.887
2154448.0,1637402348.926
2153446.0,1637402348.967
2152209.0,1637402349.007
2151172.0,1637402349.046
2150517.0,1637402349.086
2150186.0,1637402349.128
2150296.0,1637402349.167
2150403.0,1637402349.207
2150360.0,1637402349.248
2150759.0,1637402349.288
2151165.0,1637402349.328
2151292.0,1637402349.37
2151753.0,1637402349.406
2152545.0,1637402349.447
2153097.0,1637402349.488
2153563.0,1637402349.527
2154838.0,1637402349.568
2155550.0,1637402349.609
2156480.0,1637402349.648
2157442.0,1637402349.687
2155457.0,1637402349.729
2151245.0,1637402349.767
2147508.0,1637402349.807
2145175.0,1637402349.848
2143691.0,1637402349.887
2142324.0,1637402349.927
2141209.0,1637402349.969
2139926.0,1637402350.007
2138516.0,1637402350.047
2137170.0,1637402350.089
2135996.0,1637402350.128
2135478.0,1637402350.209
2135868.0,1637402350.168
2135627.0,1637402350.248
2135679.0,1637402350.288
2136011.0,1637402350.369
2135718.0,1637402350.329
2136337.0,1637402350.408
2136438.0,1637402350.449
2136965.0,1637402350.488
2137698.0,1637402350.526
2138306.0,1637402350.568
2139172.0,1637402350.607
2139899.0,1637402350.646
2140949.0,1637402350.688
2141249.0,1637402350.727
2137592.0,1637402350.768
2132864.0,1637402350.808
2129563.0,1637402350.847
2127807.0,1637402350.887
2126563.0,1637402350.929
2125670.0,1637402350.968
2124604.0,1637402351.008
2123201.0,1637402351.049
2121711.0,1637402351.088
2120393.0,1637402351.129
2119608.0,1637402351.171
2119536.0,1637402351.207
2119750.0,1637402351.247
2119785.0,1637402351.288
2119925.0,1637402351.327
2120277.0,1637402351.368
2120441.0,1637402351.408
2120441.0,1637402351.445
2120665.0,1637402351.485
2120934.0,1637402351.526
2121810.0,1637402351.566
2122508.0,1637402351.605
2123434.0,1637402351.646
2124278.0,1637402351.685
2124575.0,1637402351.725
2120664.0,1637402351.767
2115083.0,1637402351.805
2110877.0,1637402351.845
2108027.0,1637402351.886
2105814.0,1637402351.925
2104077.0,1637402351.966
2102696.0,1637402352.007
2100809.0,1637402352.046
2098651.0,1637402352.086
2096752.0,1637402352.128
2095746.0,1637402352.168
2095476.0,1637402352.207
2095267.0,1637402352.248
2095048.0,1637402352.288
2095208.0,1637402352.328
2094944.0,1637402352.37
2095001.0,1637402352.408
2095454.0,1637402352.449
2096015.0,1637402352.529
2095426.0,1637402352.49
2096886.0,1637402352.57
2097773.0,1637402352.609
2098539.0,1637402352.647
2099624.0,1637402352.68
2100602.0,1637402352.721
2099941.0,1637402352.761
2094484.0,1637402352.8
2088308.0,1637402352.841
2084437.0,1637402352.88
2079638.0,1637402352.962
2078055.0,1637402353.001
2081835.0,1637402352.921
2076316.0,1637402353.041
2074158.0,1637402353.082
2071867.0,1637402353.121
2069507.0,1637402353.202
2070377.0,1637402353.162
2069008.0,1637402353.241
2068704.0,1637402353.281
2068895.0,1637402353.32
2068720.0,1637402353.359
2068680.0,1637402353.398
2068875.0,1637402353.437
2069078.0,1637402353.476
2069617.0,1637402353.515
2070392.0,1637402353.554
2071357.0,1637402353.593
2072274.0,1637402353.632
2073298.0,1637402353.671
2073235.0,1637402353.71
2067889.0,1637402353.749
2061938.0,1637402353.788
2057821.0,1637402353.827
2055227.0,1637402353.866
2053361.0,1637402353.905
2052308.0,1637402353.944
2050897.0,1637402353.983
2049105.0,1637402354.022
2047057.0,1637402354.061
2045985.0,1637402354.1
2054510.0,1637402354.607
2056030.0,1637402354.646
2046166.0,1637402354.256
2046577.0,1637402354.295
2047174.0,1637402354.334
2047774.0,1637402354.373
2057554.0,1637402354.685
2059245.0,1637402354.724
2050436.0,1637402354.49
2051655.0,1637402354.529
2049372.0,1637402354.451
2053054.0,1637402354.568
2045803.0,1637402354.217
2045604.0,1637402354.178
2056967.0,1637402354.763
2050728.0,1637402354.802
2048340.0,1637402354.412
2045534.0,1637402354.139
2044867.0,1637402354.841
2041725.0,1637402354.88
2039782.0,1637402354.919
2037691.0,1637402354.958
2036369.0,1637402354.997
2035373.0,1637402355.036
2033571.0,1637402355.075
2031958.0,1637402355.114
2030988.0,1637402355.153
2030740.0,1637402355.192
2030917.0,1637402355.231
2031437.0,1637402355.27
2031972.0,1637402355.309
2032346.0,1637402355.348
2032808.0,1637402355.387
2033727.0,1637402355.426
2034494.0,1637402355.465
2035460.0,1637402355.504
2036752.0,1637402355.543
2038211.0,1637402355.582
2039742.0,1637402355.621
2041137.0,1637402355.66
2042713.0,1637402355.699
2044307.0,1637402355.738
2046279.0,1637402355.777
2046011.0,1637402355.816
2040766.0,1637402355.855
2035257.0,1637402355.894
2032049.0,1637402355.933
2030545.0,1637402355.972
2029627.0,1637402356.011
2029270.0,1637402356.05
2028561.0,1637402356.089
2027128.0,1637402356.128
2026116.0,1637402356.167
2025593.0,1637402356.206
2026004.0,1637402356.245
2026869.0,1637402356.284
2027851.0,1637402356.323
2028936.0,1637402356.362
2029766.0,1637402356.401
2030922.0,1637402356.44
2032228.0,1637402356.479
2033614.0,1637402356.518
2035063.0,1637402356.557
2036588.0,1637402356.596
2038538.0,1637402356.635
2040598.0,1637402356.674
2042500.0,1637402356.713
2044480.0,1637402356.752
2046795.0,1637402356.791
2047403.0,1637402356.83
2042447.0,1637402356.869
2037295.0,1637402356.908
2034006.0,1637402356.947
2032529.0,1637402356.986
2031534.0,1637402357.025
2031024.0,1637402357.064
2030694.0,1637402357.103
2029835.0,1637402357.142
2028818.0,1637402357.181
2028695.0,1637402357.22
2028956.0,1637402357.259
2029734.0,1637402357.298
2031094.0,1637402357.337
2032602.0,1637402357.376
2035063.0,1637402357.415
2037686.0,1637402357.454
2039659.0,1637402357.493
2041166.0,1637402357.532
2042650.0,1637402357.571
2044358.0,1637402357.61
2046095.0,1637402357.649
2048221.0,1637402357.688
2050245.0,1637402357.727
2052254.0,1637402357.766
2054403.0,1637402357.805
2055751.0,1637402357.844
2052442.0,1637402357.883
2047123.0,1637402357.923
2043760.0,1637402357.963
2042766.0,1637402358.003
2042181.0,1637402358.043
2042253.0,1637402358.083
2042307.0,1637402358.123
2041712.0,1637402358.163
2040780.0,1637402358.203
2040515.0,1637402358.243
2041030.0,1637402358.283
2041917.0,1637402358.323
2042995.0,1637402358.363
2044159.0,1637402358.403
2045541.0,1637402358.443
2046635.0,1637402358.483
2047587.0,1637402358.523
2049112.0,1637402358.563
2050620.0,1637402358.603
2052280.0,1637402358.643
2054116.0,1637402358.683
2055923.0,1637402358.723
2058084.0,1637402358.763
2058708.0,1637402358.803
2053819.0,1637402358.843
2049008.0,1637402358.883
2046680.0,1637402358.923
2045445.0,1637402358.963
2044511.0,1637402359.003
2044358.0,1637402359.043
2044052.0,1637402359.083
2043640.0,1637402359.123
2042980.0,1637402359.163
2042773.0,1637402359.203
2043094.0,1637402359.243
2044280.0,1637402359.283
2045506.0,1637402359.323
2046665.0,1637402359.363
2047717.0,1637402359.403
2049023.0,1637402359.443
2050195.0,1637402359.483
2051856.0,1637402359.523
2053279.0,1637402359.563
2055118.0,1637402359.603
2056942.0,1637402359.643
2058943.0,1637402359.683
2060776.0,1637402359.723
2061176.0,1637402359.763
2056373.0,1637402359.803
2051294.0,1637402359.843
2048394.0,1637402359.883
2046741.0,1637402359.923
2045461.0,1637402359.963
2045461.0,1637402360.003
2044801.0,1637402360.043
2044415.0,1637402360.083
2043437.0,1637402360.123
2042181.0,1637402360.163
2041909.0,1637402360.203
2041831.0,1637402360.243
2042545.0,1637402360.283
2043290.0,1637402360.323
2044159.0,1637402360.363
2045040.0,1637402360.403
2046047.0,1637402360.443
2047058.0,1637402360.483
2048460.0,1637402360.523
2049604.0,1637402360.563
2051271.0,1637402360.603
2052748.0,1637402360.643
2054461.0,1637402360.683
2056179.0,1637402360.723
2053232.0,1637402360.763
2048170.0,1637402360.803
2045010.0,1637402360.843
2043238.0,1637402360.883
2042215.0,1637402360.923
2041948.0,1637402360.963
2041571.0,1637402361.003
2041078.0,1637402361.043
2040167.0,1637402361.083
2039945.0,1637402361.123
2040450.0,1637402361.163
2041180.0,1637402361.203
2042344.0,1637402361.243
2043155.0,1637402361.283
2044524.0,1637402361.323
2045834.0,1637402361.363
2047173.0,1637402361.403
2048535.0,1637402361.443
2050186.0,1637402361.483
2052004.0,1637402361.523
2054061.0,1637402361.563
2056038.0,1637402361.603
2058155.0,1637402361.643
2060298.0,1637402361.683
2062540.0,1637402361.723
2064509.0,1637402361.763
2066666.0,1637402361.803
2066270.0,1637402361.843
2062063.0,1637402361.883
2058967.0,1637402361.923
2057993.0,1637402361.963
2057348.0,1637402362.003
2057010.0,1637402362.043
2057126.0,1637402362.083
2057091.0,1637402362.123
2057121.0,1637402362.163
2057178.0,1637402362.203
2057407.0,1637402362.243
2058622.0,1637402362.283
2060030.0,1637402362.323
2061238.0,1637402362.363
2062796.0,1637402362.403
2064205.0,1637402362.443
2065742.0,1637402362.483
2067523.0,1637402362.523
2069357.0,1637402362.563
2071217.0,1637402362.603
2073314.0,1637402362.643
2075261.0,1637402362.683
2077148.0,1637402362.723
2079708.0,1637402362.763
2081762.0,1637402362.803
2084192.0,1637402362.843
2086262.0,1637402362.883
2088545.0,1637402362.923
2091114.0,1637402362.963
2092407.0,1637402363.003
2090562.0,1637402363.043
2088774.0,1637402363.083
2088732.0,1637402363.123
2089434.0,1637402363.163
2090379.0,1637402363.203
2091301.0,1637402363.243
2092601.0,1637402363.283
2093219.0,1637402363.323
2093740.0,1637402363.363
2094881.0,1637402363.403
2096106.0,1637402363.443
2096106.0,1637402363.483
2097718.0,1637402363.523
2099691.0,1637402363.563
2101241.0,1637402363.603
2102988.0,1637402363.643
2104520.0,1637402363.683
2106320.0,1637402363.723
2108123.0,1637402363.763
2110004.0,1637402363.803
2111868.0,1637402363.843
2113924.0,1637402363.883
2115962.0,1637402363.923
2117905.0,1637402363.963
2119895.0,1637402364.003
2122203.0,1637402364.043
2124078.0,1637402364.083
2126324.0,1637402364.123
2126548.0,1637402364.163
2124962.0,1637402364.203
2124019.0,1637402364.243
2124290.0,1637402364.283
2124765.0,1637402364.323
2125675.0,1637402364.363
2126505.0,1637402364.403
2127416.0,1637402364.443
2127951.0,1637402364.483
2128733.0,1637402364.523
2129679.0,1637402364.563
2130954.0,1637402364.603
2132273.0,1637402364.643
2133470.0,1637402364.683
2135108.0,1637402364.723
2136202.0,1637402364.763
2137813.0,1637402364.803
2139246.0,1637402364.843
2140838.0,1637402364.883
2142165.0,1637402364.923
2143779.0,1637402364.963
2145598.0,1637402365.003
2146942.0,1637402365.043
2148808.0,1637402365.083
2150587.0,1637402365.123
2152263.0,1637402365.163
2153931.0,1637402365.257
2155631.0,1637402365.297
2156812.0,1637402365.336
2155815.0,1637402365.377
2154487.0,1637402365.416
2154164.0,1637402365.456
2154429.0,1637402365.498
2155286.0,1637402365.536
2155994.0,1637402365.576
2156429.0,1637402365.617
2157193.0,1637402365.656
2157342.0,1637402365.697
2157637.0,1637402365.739
2158514.0,1637402365.778
2159569.0,1637402365.818
2160259.0,1637402365.859
2161635.0,1637402365.899
2162751.0,1637402365.938
2164000.0,1637402365.98
2164897.0,1637402366.019
2166207.0,1637402366.059
2167476.0,1637402366.094
2168869.0,1637402366.133
2170250.0,1637402366.173
2171449.0,1637402366.214
2172821.0,1637402366.253
2174278.0,1637402366.293
2175738.0,1637402366.334
2176638.0,1637402366.373
2175413.0,1637402366.413
2173768.0,1637402366.454
2173066.0,1637402366.494
2173028.0,1637402366.533
2173013.0,1637402366.574
2173504.0,1637402366.614
2174031.0,1637402366.654
2173972.0,1637402366.695
2173995.0,1637402366.734
2174334.0,1637402366.774
2174593.0,1637402366.816
2175525.0,1637402366.853
2176152.0,1637402366.89
2176989.0,1637402366.924
2177942.0,1637402366.961
2179033.0,1637402367.0
2179962.0,1637402367.042
2180873.0,1637402367.081
2181647.0,1637402367.121
2182770.0,1637402367.16
2183888.0,1637402367.199
2185342.0,1637402367.24
2186605.0,1637402367.282
2187825.0,1637402367.32
2189285.0,1637402367.36
2190351.0,1637402367.401
2189629.0,1637402367.436
2189629.0,1637402367.477
2187596.0,1637402367.517
2186178.0,1637402367.556
2185234.0,1637402367.596
2185176.0,1637402367.637
2185276.0,1637402367.677
2185402.0,1637402367.716
2185455.0,1637402367.758
2185008.0,1637402367.797
2184906.0,1637402367.837
2184798.0,1637402367.878
2185171.0,1637402367.917
2185712.0,1637402367.957
2186115.0,1637402367.998
2186923.0,1637402368.037
2187688.0,1637402368.078
2188359.0,1637402368.119
2188908.0,1637402368.158
2189683.0,1637402368.198
2190668.0,1637402368.24
2191422.0,1637402368.279
2192343.0,1637402368.319
2193505.0,1637402368.361
2194440.0,1637402368.4
2193465.0,1637402368.44
2191473.0,1637402368.479
2189570.0,1637402368.515
2188721.0,1637402368.555
2188257.0,1637402368.597
2188216.0,1637402368.636
2188388.0,1637402368.676
2188051.0,1637402368.717
2187574.0,1637402368.756
2187347.0,1637402368.796
2187260.0,1637402368.837
2187513.0,1637402368.877
2188202.0,1637402368.916
2188716.0,1637402368.957
2189272.0,1637402368.997
2189886.0,1637402369.037
2190531.0,1637402369.079
2191243.0,1637402369.117
2191982.0,1637402369.157
2192606.0,1637402369.199
2193458.0,1637402369.238
2194310.0,1637402369.28
2195389.0,1637402369.32
2196269.0,1637402369.36
2197244.0,1637402369.4
2196464.0,1637402369.441
2193756.0,1637402369.481
2191165.0,1637402369.521
2189837.0,1637402369.562
2188806.0,1637402369.601
2187953.0,1637402369.641
2187866.0,1637402369.683
2187278.0,1637402369.722
2186440.0,1637402369.761
2185943.0,1637402369.803
2185577.0,1637402369.842
2185420.0,1637402369.88
2185705.0,1637402369.917
2185935.0,1637402369.956
2186303.0,1637402369.997
2186536.0,1637402370.038
2186979.0,1637402370.077
2187396.0,1637402370.117
2187900.0,1637402370.158
2188474.0,1637402370.197
2189133.0,1637402370.237
2189557.0,1637402370.279
2190946.0,1637402370.317
2191526.0,1637402370.357
2192311.0,1637402370.398
2193235.0,1637402370.437
2194123.0,1637402370.478
2193133.0,1637402370.519
2190050.0,1637402370.558
2187772.0,1637402370.599
2186162.0,1637402370.64
2185361.0,1637402370.68
2184628.0,1637402370.72
2184310.0,1637402370.761
2183568.0,1637402370.801
2182436.0,1637402370.841
2181707.0,1637402370.883
2181169.0,1637402370.921
2181170.0,1637402370.961
2181177.0,1637402371.001
2181268.0,1637402371.041
2181568.0,1637402371.082
2181812.0,1637402371.117
2182133.0,1637402371.156
2182412.0,1637402371.196
2182663.0,1637402371.237
2183379.0,1637402371.277
2184005.0,1637402371.316
2184804.0,1637402371.357
2185434.0,1637402371.396
2186296.0,1637402371.436
2186981.0,1637402371.478
2187875.0,1637402371.516
2186955.0,1637402371.557
2183615.0,1637402371.598
2180672.0,1637402371.637
2178773.0,1637402371.678
2177475.0,1637402371.718
2176358.0,1637402371.757
2175731.0,1637402371.797
2175162.0,1637402371.839
2174184.0,1637402371.879
2172911.0,1637402371.919
2172451.0,1637402371.96
2172066.0,1637402372.0
2172189.0,1637402372.04
2172256.0,1637402372.082
2172443.0,1637402372.121
2172710.0,1637402372.16
2172823.0,1637402372.202
2173061.0,1637402372.237
2173520.0,1637402372.278
2174110.0,1637402372.318
2174577.0,1637402372.357
2175410.0,1637402372.397
2176027.0,1637402372.438
2176813.0,1637402372.478
2177635.0,1637402372.517
2178588.0,1637402372.559
2179321.0,1637402372.598
2176641.0,1637402372.638
2173318.0,1637402372.68
2170586.0,1637402372.718
2168865.0,1637402372.758
2168067.0,1637402372.799
2167133.0,1637402372.838
2166579.0,1637402372.879
2165642.0,1637402372.919
2164491.0,1637402372.959
2163662.0,1637402372.999
2163060.0,1637402373.041
2163055.0,1637402373.08
2163070.0,1637402373.12
2162993.0,1637402373.162
2163227.0,1637402373.201
2163665.0,1637402373.241
2163715.0,1637402373.283
2164313.0,1637402373.322
2164716.0,1637402373.362
2165428.0,1637402373.403
2166086.0,1637402373.442
2166995.0,1637402373.48
2167672.0,1637402373.52
2168480.0,1637402373.559
2168961.0,1637402373.599
2166447.0,1637402373.64
2163511.0,1637402373.68
2161582.0,1637402373.719
2160068.0,1637402373.76
2159338.0,1637402373.799
2158930.0,1637402373.84
2158343.0,1637402373.881
2157570.0,1637402373.92
2156490.0,1637402373.96
2156366.0,1637402374.001
2156212.0,1637402374.04
2156209.0,1637402374.081
2156316.0,1637402374.121
2156812.0,1637402374.161
2157195.0,1637402374.2
2157601.0,1637402374.242
2157852.0,1637402374.282
2158420.0,1637402374.321
2159100.0,1637402374.363
2159836.0,1637402374.402
2160763.0,1637402374.442
2161714.0,1637402374.484
2162585.0,1637402374.523
2163639.0,1637402374.562
2164497.0,1637402374.604
2165759.0,1637402374.643
2166944.0,1637402374.684
2168047.0,1637402374.724
2167329.0,1637402374.763
2164110.0,1637402374.803
2161575.0,1637402374.844
2159929.0,1637402374.884
2158845.0,1637402374.924
2158093.0,1637402374.965
2157361.0,1637402375.002
2156565.0,1637402375.042
2156136.0,1637402375.084
2155218.0,1637402375.123
2155100.0,1637402375.163
2154966.0,1637402375.204
2155273.0,1637402375.243
2155601.0,1637402375.284
2156165.0,1637402375.324
2156333.0,1637402375.363
2156955.0,1637402375.403
2157607.0,1637402375.444
2158407.0,1637402375.484
2159074.0,1637402375.524
2160007.0,1637402375.565
2160993.0,1637402375.604
2161963.0,1637402375.644
2163177.0,1637402375.686
2164147.0,1637402375.724
2165287.0,1637402375.764
2166459.0,1637402375.805
2167730.0,1637402375.845
2168980.0,1637402375.886
2169967.0,1637402375.925
2171560.0,1637402375.962
2171405.0,1637402376.002
2169155.0,1637402376.043
2167832.0,1637402376.083
2167120.0,1637402376.122
2167019.0,1637402376.164
2166788.0,1637402376.203
2166973.0,1637402376.233
2167067.0,1637402376.275
2167063.0,1637402376.314
2167039.0,1637402376.354
2167113.0,1637402376.395
2167918.0,1637402376.434
2168327.0,1637402376.475
2169271.0,1637402376.515
2170080.0,1637402376.554
2171058.0,1637402376.594
2171990.0,1637402376.635
2173067.0,1637402376.675
2174082.0,1637402376.715
2175208.0,1637402376.756
