bvp,time
-8.42,1660301143.203125
-10.72,1660301143.21875
-12.88,1660301143.234375
-14.98,1660301143.25
-16.82,1660301143.265625
-18.06,1660301143.28125
-18.65,1660301143.296875
-19.07,1660301143.3125
-20.13,1660301143.328125
-22.5,1660301143.34375
-26.29,1660301143.359375
-30.93,1660301143.375
-35.58,1660301143.390625
-39.64,1660301143.40625
-43.21,1660301143.421875
-46.84,1660301143.4375
-51.24,1660301143.453125
-56.84,1660301143.46875
-63.63,1660301143.484375
-71.5,1660301143.5
-80.51,1660301143.515625
-91.06,1660301143.53125
-103.61,1660301143.546875
-118.27,1660301143.5625
-134.54,1660301143.578125
-151.39,1660301143.59375
-167.77,1660301143.609375
-182.99,1660301143.625
-197.16,1660301143.640625
-210.95,1660301143.65625
-225.31,1660301143.671875
-241.06,1660301143.6875
-258.91,1660301143.703125
-279.62,1660301143.71875
-303.97,1660301143.734375
-332.33,1660301143.75
-363.85,1660301143.765625
-395.84,1660301143.78125
-423.87,1660301143.796875
-443.05,1660301143.8125
-449.77,1660301143.828125
-443.21,1660301143.84375
-425.61,1660301143.859375
-401.31,1660301143.875
-375.03,1660301143.890625
-350.17,1660301143.90625
-328.28,1660301143.921875
-309.42,1660301143.9375
-293.08,1660301143.953125
-278.9,1660301143.96875
-266.71,1660301143.984375
-256.16,1660301144.0
-246.37,1660301144.015625
-236.0,1660301144.03125
-223.8,1660301144.046875
-209.32,1660301144.0625
-193.06,1660301144.078125
-176.17,1660301144.09375
-159.75,1660301144.109375
-144.05,1660301144.125
-128.2,1660301144.140625
-110.49,1660301144.15625
-89.26,1660301144.171875
-63.71,1660301144.1875
-34.52,1660301144.203125
-3.51,1660301144.21875
27.09,1660301144.234375
55.82,1660301144.25
82.81,1660301144.265625
109.68,1660301144.28125
138.82,1660301144.296875
172.03,1660301144.3125
209.42,1660301144.328125
249.09,1660301144.34375
287.84,1660301144.359375
322.43,1660301144.375
351.12,1660301144.390625
374.33,1660301144.40625
394.48,1660301144.421875
415.29,1660301144.4375
440.58,1660301144.453125
473.3,1660301144.46875
514.4,1660301144.484375
561.83,1660301144.5
609.71,1660301144.515625
648.55,1660301144.53125
667.03,1660301144.546875
655.7,1660301144.5625
611.05,1660301144.578125
537.92,1660301144.59375
448.82,1660301144.609375
359.7,1660301144.625
284.14,1660301144.640625
228.85,1660301144.65625
192.45,1660301144.671875
168.02,1660301144.6875
147.51,1660301144.703125
125.55,1660301144.71875
100.6,1660301144.734375
73.79,1660301144.75
46.5,1660301144.765625
18.97,1660301144.78125
-9.54,1660301144.796875
-39.33,1660301144.8125
-68.97,1660301144.828125
-95.0,1660301144.84375
-113.27,1660301144.859375
-120.84,1660301144.875
-117.33,1660301144.890625
-105.17,1660301144.90625
-88.56,1660301144.921875
-71.67,1660301144.9375
-56.98,1660301144.953125
-44.54,1660301144.96875
-32.24,1660301144.984375
-16.85,1660301145.0
4.48,1660301145.015625
33.15,1660301145.03125
68.28,1660301145.046875
106.61,1660301145.0625
143.28,1660301145.078125
173.02,1660301145.09375
191.75,1660301145.109375
197.86,1660301145.125
192.65,1660301145.140625
179.66,1660301145.15625
163.35,1660301145.171875
147.47,1660301145.1875
134.07,1660301145.203125
123.44,1660301145.21875
114.76,1660301145.234375
106.94,1660301145.25
99.2,1660301145.265625
91.11,1660301145.28125
82.51,1660301145.296875
73.36,1660301145.3125
63.84,1660301145.328125
54.57,1660301145.34375
46.48,1660301145.359375
40.46,1660301145.375
36.92,1660301145.390625
35.53,1660301145.40625
35.38,1660301145.421875
35.29,1660301145.4375
34.42,1660301145.453125
32.42,1660301145.46875
29.45,1660301145.484375
25.96,1660301145.5
22.34,1660301145.515625
18.91,1660301145.53125
15.85,1660301145.546875
13.19,1660301145.5625
10.93,1660301145.578125
9.0,1660301145.59375
7.35,1660301145.609375
5.82,1660301145.625
4.26,1660301145.640625
2.55,1660301145.65625
0.61,1660301145.671875
-1.49,1660301145.6875
-3.58,1660301145.703125
-5.38,1660301145.71875
-6.63,1660301145.734375
-7.11,1660301145.75
-6.77,1660301145.765625
-5.74,1660301145.78125
-4.37,1660301145.796875
-3.18,1660301145.8125
-2.71,1660301145.828125
-3.33,1660301145.84375
-5.02,1660301145.859375
-7.31,1660301145.875
-9.42,1660301145.890625
-10.56,1660301145.90625
-10.37,1660301145.921875
-9.12,1660301145.9375
-7.63,1660301145.953125
-6.92,1660301145.96875
-7.72,1660301145.984375
-10.21,1660301146.0
-14.07,1660301146.015625
-18.69,1660301146.03125
-23.38,1660301146.046875
-27.46,1660301146.0625
-30.26,1660301146.078125
-31.21,1660301146.09375
-29.91,1660301146.109375
-26.52,1660301146.125
-21.74,1660301146.140625
-16.65,1660301146.15625
-12.34,1660301146.171875
-9.44,1660301146.1875
-7.95,1660301146.203125
-7.38,1660301146.21875
-7.14,1660301146.234375
-6.8,1660301146.25
-6.32,1660301146.265625
-5.86,1660301146.28125
-5.5,1660301146.296875
-5.14,1660301146.3125
-4.55,1660301146.328125
-3.57,1660301146.34375
-2.3,1660301146.359375
-1.14,1660301146.375
-0.68,1660301146.390625
-1.3,1660301146.40625
-3.02,1660301146.421875
-5.4,1660301146.4375
-7.75,1660301146.453125
-9.47,1660301146.46875
-10.42,1660301146.484375
-10.91,1660301146.5
-11.56,1660301146.515625
-12.95,1660301146.53125
-15.28,1660301146.546875
-18.37,1660301146.5625
-21.77,1660301146.578125
-25.14,1660301146.59375
-28.39,1660301146.609375
-31.71,1660301146.625
-35.43,1660301146.640625
-39.78,1660301146.65625
-44.79,1660301146.671875
-50.31,1660301146.6875
-56.13,1660301146.703125
-62.18,1660301146.71875
-68.5,1660301146.734375
-75.23,1660301146.75
-82.49,1660301146.765625
-90.19,1660301146.78125
-98.05,1660301146.796875
-105.52,1660301146.8125
-112.01,1660301146.828125
-117.17,1660301146.84375
-121.06,1660301146.859375
-124.18,1660301146.875
-127.18,1660301146.890625
-130.58,1660301146.90625
-134.47,1660301146.921875
-138.57,1660301146.9375
-142.35,1660301146.953125
-145.04,1660301146.96875
-145.63,1660301146.984375
-142.85,1660301147.0
-135.3,1660301147.015625
-121.79,1660301147.03125
-101.87,1660301147.046875
-76.15,1660301147.0625
-46.2,1660301147.078125
-13.99,1660301147.09375
18.85,1660301147.109375
51.73,1660301147.125
85.13,1660301147.140625
120.15,1660301147.15625
157.56,1660301147.171875
196.84,1660301147.1875
235.58,1660301147.203125
269.71,1660301147.21875
294.59,1660301147.234375
306.54,1660301147.25
304.33,1660301147.265625
289.73,1660301147.28125
266.91,1660301147.296875
240.74,1660301147.3125
215.01,1660301147.328125
191.28,1660301147.34375
169.11,1660301147.359375
147.16,1660301147.375
124.53,1660301147.390625
101.48,1660301147.40625
79.13,1660301147.421875
58.65,1660301147.4375
40.46,1660301147.453125
24.22,1660301147.46875
9.41,1660301147.484375
-4.01,1660301147.5
-15.23,1660301147.515625
-22.98,1660301147.53125
-26.24,1660301147.546875
-25.0,1660301147.5625
-20.42,1660301147.578125
-14.44,1660301147.59375
-9.07,1660301147.609375
-5.62,1660301147.625
-4.33,1660301147.640625
-4.47,1660301147.65625
-4.75,1660301147.671875
-3.89,1660301147.6875
-1.28,1660301147.703125
2.81,1660301147.71875
7.21,1660301147.734375
10.26,1660301147.75
10.56,1660301147.765625
7.47,1660301147.78125
1.61,1660301147.796875
-5.4,1660301147.8125
-11.44,1660301147.828125
-14.78,1660301147.84375
-14.63,1660301147.859375
-11.45,1660301147.875
-6.62,1660301147.890625
-1.81,1660301147.90625
1.58,1660301147.921875
2.95,1660301147.9375
2.36,1660301147.953125
0.36,1660301147.96875
-2.46,1660301147.984375
-5.62,1660301148.0
-8.79,1660301148.015625
-11.67,1660301148.03125
-13.82,1660301148.046875
-14.86,1660301148.0625
-14.64,1660301148.078125
-13.49,1660301148.09375
-12.23,1660301148.109375
-11.81,1660301148.125
-12.86,1660301148.140625
-15.34,1660301148.15625
-18.5,1660301148.171875
-21.13,1660301148.1875
-22.12,1660301148.203125
-20.96,1660301148.21875
-17.82,1660301148.234375
-13.46,1660301148.25
-8.8,1660301148.265625
-4.51,1660301148.28125
-0.81,1660301148.296875
2.47,1660301148.3125
5.69,1660301148.328125
9.05,1660301148.34375
12.51,1660301148.359375
15.81,1660301148.375
18.62,1660301148.390625
20.7,1660301148.40625
22.0,1660301148.421875
22.54,1660301148.4375
22.38,1660301148.453125
21.57,1660301148.46875
20.12,1660301148.484375
18.19,1660301148.5
16.1,1660301148.515625
14.28,1660301148.53125
13.12,1660301148.546875
12.81,1660301148.5625
13.19,1660301148.578125
13.83,1660301148.59375
14.12,1660301148.609375
13.5,1660301148.625
11.67,1660301148.640625
8.62,1660301148.65625
4.6,1660301148.671875
-0.0,1660301148.6875
-4.77,1660301148.703125
-9.27,1660301148.71875
-13.12,1660301148.734375
-15.92,1660301148.75
-17.46,1660301148.765625
-17.73,1660301148.78125
-17.02,1660301148.796875
-15.87,1660301148.8125
-14.86,1660301148.828125
-14.42,1660301148.84375
-14.67,1660301148.859375
-15.47,1660301148.875
-16.62,1660301148.890625
-17.97,1660301148.90625
-19.37,1660301148.921875
-20.67,1660301148.9375
-21.51,1660301148.953125
-21.41,1660301148.96875
-19.93,1660301148.984375
-16.95,1660301149.0
-12.78,1660301149.015625
-8.13,1660301149.03125
-3.86,1660301149.046875
-0.59,1660301149.0625
1.5,1660301149.078125
2.59,1660301149.09375
3.05,1660301149.109375
3.17,1660301149.125
2.99,1660301149.140625
2.46,1660301149.15625
1.55,1660301149.171875
0.38,1660301149.1875
-0.78,1660301149.203125
-1.68,1660301149.21875
-2.25,1660301149.234375
-2.57,1660301149.25
-2.84,1660301149.265625
-3.19,1660301149.28125
-3.53,1660301149.296875
-3.58,1660301149.3125
-3.11,1660301149.328125
-2.06,1660301149.34375
-0.76,1660301149.359375
0.24,1660301149.375
0.43,1660301149.390625
-0.4,1660301149.40625
-2.07,1660301149.421875
-4.08,1660301149.4375
-5.88,1660301149.453125
-7.13,1660301149.46875
-7.79,1660301149.484375
-8.19,1660301149.5
-8.79,1660301149.515625
-9.93,1660301149.53125
-11.72,1660301149.546875
-13.94,1660301149.5625
-16.16,1660301149.578125
-18.07,1660301149.59375
-19.63,1660301149.609375
-21.13,1660301149.625
-23.1,1660301149.640625
-26.05,1660301149.65625
-30.12,1660301149.671875
-34.98,1660301149.6875
-39.83,1660301149.703125
-43.81,1660301149.71875
-46.36,1660301149.734375
-47.52,1660301149.75
-47.9,1660301149.765625
-48.41,1660301149.78125
-49.82,1660301149.796875
-52.62,1660301149.8125
-57.02,1660301149.828125
-63.11,1660301149.84375
-70.95,1660301149.859375
-80.46,1660301149.875
-91.08,1660301149.890625
-101.46,1660301149.90625
-109.36,1660301149.921875
-112.06,1660301149.9375
-107.21,1660301149.953125
-93.73,1660301149.96875
-72.19,1660301149.984375
-44.65,1660301150.0
-13.89,1660301150.015625
17.55,1660301150.03125
47.97,1660301150.046875
76.62,1660301150.0625
103.18,1660301150.078125
127.27,1660301150.09375
148.15,1660301150.109375
164.86,1660301150.125
176.67,1660301150.140625
183.39,1660301150.15625
185.38,1660301150.171875
183.18,1660301150.1875
177.21,1660301150.203125
167.64,1660301150.21875
154.58,1660301150.234375
138.49,1660301150.25
120.44,1660301150.265625
102.03,1660301150.28125
84.92,1660301150.296875
70.4,1660301150.3125
58.95,1660301150.328125
50.3,1660301150.34375
43.64,1660301150.359375
38.03,1660301150.375
32.6,1660301150.390625
26.71,1660301150.40625
19.97,1660301150.421875
12.29,1660301150.4375
3.83,1660301150.453125
-5.01,1660301150.46875
-13.61,1660301150.484375
-21.26,1660301150.5
-27.25,1660301150.515625
-31.0,1660301150.53125
-32.29,1660301150.546875
-31.3,1660301150.5625
-28.64,1660301150.578125
-25.18,1660301150.59375
-21.71,1660301150.609375
-18.73,1660301150.625
-16.25,1660301150.640625
-13.85,1660301150.65625
-11.08,1660301150.671875
-7.72,1660301150.6875
-4.08,1660301150.703125
-0.86,1660301150.71875
1.16,1660301150.734375
1.62,1660301150.75
0.76,1660301150.765625
-0.65,1660301150.78125
-1.7,1660301150.796875
-1.79,1660301150.8125
-0.93,1660301150.828125
0.25,1660301150.84375
0.9,1660301150.859375
0.34,1660301150.875
-1.49,1660301150.890625
-3.97,1660301150.90625
-6.04,1660301150.921875
-6.78,1660301150.9375
-5.88,1660301150.953125
-3.95,1660301150.96875
-2.31,1660301150.984375
-2.39,1660301151.0
-5.08,1660301151.015625
-10.16,1660301151.03125
-16.34,1660301151.046875
-21.8,1660301151.0625
-24.95,1660301151.078125
-25.04,1660301151.09375
-22.39,1660301151.109375
-18.1,1660301151.125
-13.5,1660301151.140625
-9.68,1660301151.15625
-7.22,1660301151.171875
-6.14,1660301151.1875
-6.09,1660301151.203125
-6.52,1660301151.21875
-6.85,1660301151.234375
-6.72,1660301151.25
-6.12,1660301151.265625
-5.41,1660301151.28125
-5.14,1660301151.296875
-5.82,1660301151.3125
-7.59,1660301151.328125
-10.18,1660301151.34375
-13.06,1660301151.359375
-15.71,1660301151.375
-17.9,1660301151.390625
-19.75,1660301151.40625
-21.47,1660301151.421875
-23.27,1660301151.4375
-25.22,1660301151.453125
-27.31,1660301151.46875
-29.6,1660301151.484375
-32.31,1660301151.5
-35.65,1660301151.515625
-39.82,1660301151.53125
-44.79,1660301151.546875
-50.37,1660301151.5625
-56.33,1660301151.578125
-62.57,1660301151.59375
-69.18,1660301151.609375
-76.29,1660301151.625
-84.02,1660301151.640625
-92.3,1660301151.65625
-100.92,1660301151.671875
-109.56,1660301151.6875
-117.97,1660301151.703125
-126.02,1660301151.71875
-133.76,1660301151.734375
-141.34,1660301151.75
-148.88,1660301151.765625
-156.4,1660301151.78125
-163.75,1660301151.796875
-170.71,1660301151.8125
-177.17,1660301151.828125
-183.27,1660301151.84375
-189.38,1660301151.859375
-196.07,1660301151.875
-203.86,1660301151.890625
-213.11,1660301151.90625
-223.89,1660301151.921875
-235.92,1660301151.9375
-248.37,1660301151.953125
-259.67,1660301151.96875
-267.42,1660301151.984375
-268.68,1660301152.0
-260.59,1660301152.015625
-241.44,1660301152.03125
-211.4,1660301152.046875
-172.79,1660301152.0625
-129.36,1660301152.078125
-85.34,1660301152.09375
-44.44,1660301152.109375
-9.32,1660301152.125
18.45,1660301152.140625
38.12,1660301152.15625
49.72,1660301152.171875
54.08,1660301152.1875
52.95,1660301152.203125
48.94,1660301152.21875
44.76,1660301152.234375
42.39,1660301152.25
42.43,1660301152.265625
44.03,1660301152.28125
45.63,1660301152.296875
45.96,1660301152.3125
44.87,1660301152.328125
43.38,1660301152.34375
43.2,1660301152.359375
45.82,1660301152.375
51.94,1660301152.390625
61.33,1660301152.40625
73.07,1660301152.421875
85.98,1660301152.4375
98.95,1660301152.453125
111.05,1660301152.46875
121.63,1660301152.484375
130.35,1660301152.5
137.41,1660301152.515625
143.52,1660301152.53125
149.7,1660301152.546875
156.83,1660301152.5625
165.1,1660301152.578125
173.83,1660301152.59375
181.85,1660301152.609375
188.2,1660301152.625
192.74,1660301152.640625
196.23,1660301152.65625
199.79,1660301152.671875
204.05,1660301152.6875
208.54,1660301152.703125
211.97,1660301152.71875
212.8,1660301152.734375
210.21,1660301152.75
204.4,1660301152.765625
196.27,1660301152.78125
186.71,1660301152.796875
175.88,1660301152.8125
163.17,1660301152.828125
147.72,1660301152.84375
129.37,1660301152.859375
109.05,1660301152.875
88.71,1660301152.890625
70.61,1660301152.90625
56.49,1660301152.921875
47.15,1660301152.9375
42.47,1660301152.953125
41.71,1660301152.96875
43.86,1660301152.984375
47.68,1660301153.0
51.73,1660301153.015625
54.33,1660301153.03125
53.71,1660301153.046875
48.48,1660301153.0625
38.18,1660301153.078125
23.62,1660301153.09375
6.91,1660301153.109375
-9.11,1660301153.125
-21.68,1660301153.140625
-29.01,1660301153.15625
-30.92,1660301153.171875
-28.75,1660301153.1875
-24.85,1660301153.203125
-21.59,1660301153.21875
-20.57,1660301153.234375
-22.13,1660301153.25
-25.52,1660301153.265625
-29.46,1660301153.28125
-32.73,1660301153.296875
-34.65,1660301153.3125
-35.21,1660301153.328125
-34.95,1660301153.34375
-34.58,1660301153.359375
-34.8,1660301153.375
-36.11,1660301153.390625
-38.77,1660301153.40625
-42.7,1660301153.421875
-47.4,1660301153.4375
-51.96,1660301153.453125
-55.22,1660301153.46875
-56.08,1660301153.484375
-53.83,1660301153.5
-48.41,1660301153.515625
-40.33,1660301153.53125
-30.43,1660301153.546875
-19.57,1660301153.5625
-8.39,1660301153.578125
2.64,1660301153.59375
13.18,1660301153.609375
22.85,1660301153.625
31.19,1660301153.640625
37.79,1660301153.65625
42.36,1660301153.671875
44.8,1660301153.6875
45.18,1660301153.703125
43.76,1660301153.71875
40.89,1660301153.734375
37.06,1660301153.75
32.9,1660301153.765625
29.12,1660301153.78125
26.35,1660301153.796875
25.05,1660301153.8125
25.46,1660301153.828125
27.58,1660301153.84375
31.38,1660301153.859375
36.72,1660301153.875
43.5,1660301153.890625
51.66,1660301153.90625
61.26,1660301153.921875
72.53,1660301153.9375
85.79,1660301153.953125
101.21,1660301153.96875
118.45,1660301153.984375
136.41,1660301154.0
153.09,1660301154.015625
165.89,1660301154.03125
172.18,1660301154.046875
170.04,1660301154.0625
159.0,1660301154.078125
140.26,1660301154.09375
116.61,1660301154.109375
91.68,1660301154.125
69.05,1660301154.140625
51.3,1660301154.15625
39.56,1660301154.171875
33.43,1660301154.1875
31.45,1660301154.203125
31.79,1660301154.21875
32.82,1660301154.234375
33.47,1660301154.25
33.16,1660301154.265625
31.74,1660301154.28125
29.28,1660301154.296875
26.07,1660301154.3125
22.58,1660301154.328125
19.34,1660301154.34375
16.68,1660301154.359375
14.53,1660301154.375
12.22,1660301154.390625
8.79,1660301154.40625
3.38,1660301154.421875
-4.4,1660301154.4375
-14.23,1660301154.453125
-25.19,1660301154.46875
-36.08,1660301154.484375
-45.8,1660301154.5
-53.57,1660301154.515625
-59.06,1660301154.53125
-62.31,1660301154.546875
-63.7,1660301154.5625
-63.83,1660301154.578125
-63.45,1660301154.59375
-63.24,1660301154.609375
-63.55,1660301154.625
-64.35,1660301154.640625
-65.16,1660301154.65625
-65.34,1660301154.671875
-64.41,1660301154.6875
-62.26,1660301154.703125
-59.28,1660301154.71875
-56.14,1660301154.734375
-53.51,1660301154.75
-51.81,1660301154.765625
-50.99,1660301154.78125
-50.73,1660301154.796875
-50.56,1660301154.8125
-50.16,1660301154.828125
-49.43,1660301154.84375
-48.54,1660301154.859375
-47.66,1660301154.875
-46.87,1660301154.890625
-46.02,1660301154.90625
-44.7,1660301154.921875
-42.4,1660301154.9375
-38.74,1660301154.953125
-33.58,1660301154.96875
-27.14,1660301154.984375
-20.0,1660301155.0
-12.95,1660301155.015625
-6.74,1660301155.03125
-1.98,1660301155.046875
1.11,1660301155.0625
2.58,1660301155.078125
2.71,1660301155.09375
1.73,1660301155.109375
-0.19,1660301155.125
-3.03,1660301155.140625
-6.85,1660301155.15625
-11.56,1660301155.171875
-17.01,1660301155.1875
-22.83,1660301155.203125
-28.56,1660301155.21875
-33.68,1660301155.234375
-37.72,1660301155.25
-40.36,1660301155.265625
-41.43,1660301155.28125
-40.97,1660301155.296875
-39.22,1660301155.3125
-36.56,1660301155.328125
-33.5,1660301155.34375
-30.54,1660301155.359375
-28.01,1660301155.375
-25.92,1660301155.390625
-24.0,1660301155.40625
-21.68,1660301155.421875
-18.48,1660301155.4375
-14.16,1660301155.453125
-8.93,1660301155.46875
-3.32,1660301155.484375
2.03,1660301155.5
6.68,1660301155.515625
10.54,1660301155.53125
13.73,1660301155.546875
16.39,1660301155.5625
18.5,1660301155.578125
19.89,1660301155.59375
20.37,1660301155.609375
19.95,1660301155.625
18.96,1660301155.640625
17.83,1660301155.65625
16.89,1660301155.671875
16.21,1660301155.6875
15.6,1660301155.703125
14.77,1660301155.71875
13.57,1660301155.734375
12.06,1660301155.75
10.39,1660301155.765625
8.72,1660301155.78125
7.01,1660301155.796875
5.04,1660301155.8125
2.55,1660301155.828125
-0.7,1660301155.84375
-4.79,1660301155.859375
-9.62,1660301155.875
-14.91,1660301155.890625
-20.25,1660301155.90625
-25.03,1660301155.921875
-28.66,1660301155.9375
-30.63,1660301155.953125
-30.8,1660301155.96875
-29.39,1660301155.984375
-26.93,1660301156.0
-24.04,1660301156.015625
-21.29,1660301156.03125
-18.96,1660301156.046875
-17.13,1660301156.0625
-15.75,1660301156.078125
-14.69,1660301156.09375
-13.82,1660301156.109375
-13.03,1660301156.125
-12.22,1660301156.140625
-11.25,1660301156.15625
-10.1,1660301156.171875
-8.8,1660301156.1875
-7.4,1660301156.203125
-6.0,1660301156.21875
-4.71,1660301156.234375
-3.63,1660301156.25
-2.86,1660301156.265625
-2.37,1660301156.28125
-2.06,1660301156.296875
-1.67,1660301156.3125
-0.88,1660301156.328125
0.48,1660301156.34375
2.38,1660301156.359375
4.45,1660301156.375
6.2,1660301156.390625
7.15,1660301156.40625
7.1,1660301156.421875
6.19,1660301156.4375
4.88,1660301156.453125
3.69,1660301156.46875
2.95,1660301156.484375
2.66,1660301156.5
2.51,1660301156.515625
2.09,1660301156.53125
1.0,1660301156.546875
-0.93,1660301156.5625
-3.63,1660301156.578125
-6.87,1660301156.59375
-10.33,1660301156.609375
-13.64,1660301156.625
-16.43,1660301156.640625
-18.32,1660301156.65625
-18.89,1660301156.671875
-17.93,1660301156.6875
-15.46,1660301156.703125
-11.91,1660301156.71875
-7.92,1660301156.734375
-4.15,1660301156.75
-0.96,1660301156.765625
1.71,1660301156.78125
4.32,1660301156.796875
7.38,1660301156.8125
11.17,1660301156.828125
15.55,1660301156.84375
19.99,1660301156.859375
23.76,1660301156.875
26.29,1660301156.890625
27.29,1660301156.90625
26.89,1660301156.921875
25.43,1660301156.9375
23.34,1660301156.953125
20.91,1660301156.96875
18.33,1660301156.984375
15.63,1660301157.0
12.83,1660301157.015625
10.04,1660301157.03125
7.43,1660301157.046875
5.21,1660301157.0625
3.43,1660301157.078125
1.97,1660301157.09375
0.4,1660301157.109375
-1.77,1660301157.125
-4.91,1660301157.140625
-9.01,1660301157.15625
-13.59,1660301157.171875
-17.85,1660301157.1875
-20.9,1660301157.203125
-22.17,1660301157.21875
-21.64,1660301157.234375
-19.9,1660301157.25
-17.83,1660301157.265625
-16.39,1660301157.28125
-16.14,1660301157.296875
-17.07,1660301157.3125
-18.72,1660301157.328125
-20.41,1660301157.34375
-21.64,1660301157.359375
-22.2,1660301157.375
-22.36,1660301157.390625
-22.53,1660301157.40625
-23.09,1660301157.421875
-24.22,1660301157.4375
-25.89,1660301157.453125
-27.79,1660301157.46875
-29.26,1660301157.484375
-29.22,1660301157.5
-26.12,1660301157.515625
-18.38,1660301157.53125
-4.83,1660301157.546875
14.46,1660301157.5625
37.81,1660301157.578125
62.03,1660301157.59375
83.36,1660301157.609375
98.76,1660301157.625
106.89,1660301157.640625
108.54,1660301157.65625
106.02,1660301157.671875
102.0,1660301157.6875
98.25,1660301157.703125
95.2,1660301157.71875
92.19,1660301157.734375
88.38,1660301157.75
83.64,1660301157.765625
78.73,1660301157.78125
74.85,1660301157.796875
72.77,1660301157.8125
72.16,1660301157.828125
71.58,1660301157.84375
69.1,1660301157.859375
63.28,1660301157.875
53.85,1660301157.890625
41.79,1660301157.90625
28.82,1660301157.921875
16.53,1660301157.9375
5.7,1660301157.953125
-3.92,1660301157.96875
-13.29,1660301157.984375
-23.35,1660301158.0
-34.45,1660301158.015625
-46.02,1660301158.03125
-56.8,1660301158.046875
-65.32,1660301158.0625
-70.58,1660301158.078125
-72.36,1660301158.09375
-71.34,1660301158.109375
-68.55,1660301158.125
-64.98,1660301158.140625
-61.19,1660301158.15625
-57.19,1660301158.171875
-52.75,1660301158.1875
-47.7,1660301158.203125
-42.18,1660301158.21875
-36.62,1660301158.234375
-31.67,1660301158.25
-27.85,1660301158.265625
-25.36,1660301158.28125
-23.97,1660301158.296875
-23.2,1660301158.3125
-22.54,1660301158.328125
-21.65,1660301158.34375
-20.48,1660301158.359375
-19.22,1660301158.375
-18.13,1660301158.390625
-17.36,1660301158.40625
-16.93,1660301158.421875
-16.64,1660301158.4375
-16.26,1660301158.453125
-15.6,1660301158.46875
-14.69,1660301158.484375
-13.71,1660301158.5
-12.96,1660301158.515625
-12.71,1660301158.53125
-13.09,1660301158.546875
-14.05,1660301158.5625
-15.31,1660301158.578125
-16.61,1660301158.59375
-17.73,1660301158.609375
-18.58,1660301158.625
-19.24,1660301158.640625
-19.84,1660301158.65625
-20.51,1660301158.671875
-21.3,1660301158.6875
-22.2,1660301158.703125
-23.11,1660301158.71875
-23.86,1660301158.734375
-24.23,1660301158.75
-23.98,1660301158.765625
-22.91,1660301158.78125
-20.97,1660301158.796875
-18.29,1660301158.8125
-15.1,1660301158.828125
-11.72,1660301158.84375
-8.39,1660301158.859375
-5.26,1660301158.875
-2.37,1660301158.890625
0.26,1660301158.90625
2.55,1660301158.921875
4.4,1660301158.9375
5.72,1660301158.953125
6.53,1660301158.96875
7.0,1660301158.984375
7.4,1660301159.0
7.97,1660301159.015625
8.82,1660301159.03125
9.87,1660301159.046875
10.82,1660301159.0625
11.36,1660301159.078125
11.25,1660301159.09375
10.48,1660301159.109375
9.21,1660301159.125
7.74,1660301159.140625
6.3,1660301159.15625
5.06,1660301159.171875
4.01,1660301159.1875
3.05,1660301159.203125
2.04,1660301159.21875
0.84,1660301159.234375
-0.58,1660301159.25
-2.17,1660301159.265625
-3.82,1660301159.28125
-5.47,1660301159.296875
-7.13,1660301159.3125
-8.94,1660301159.328125
-11.09,1660301159.34375
-13.69,1660301159.359375
-16.72,1660301159.375
-19.94,1660301159.390625
-22.93,1660301159.40625
-25.25,1660301159.421875
-26.52,1660301159.4375
-26.55,1660301159.453125
-25.36,1660301159.46875
-23.18,1660301159.484375
-20.34,1660301159.5
-17.23,1660301159.515625
-14.24,1660301159.53125
-11.61,1660301159.546875
-9.46,1660301159.5625
-7.74,1660301159.578125
-6.3,1660301159.59375
-4.92,1660301159.609375
-3.44,1660301159.625
-1.8,1660301159.640625
-0.07,1660301159.65625
1.59,1660301159.671875
2.98,1660301159.6875
3.93,1660301159.703125
4.36,1660301159.71875
4.32,1660301159.734375
3.93,1660301159.75
3.43,1660301159.765625
3.06,1660301159.78125
2.98,1660301159.796875
3.26,1660301159.8125
3.79,1660301159.828125
4.28,1660301159.84375
4.34,1660301159.859375
3.66,1660301159.875
2.04,1660301159.890625
-0.46,1660301159.90625
-3.54,1660301159.921875
-6.82,1660301159.9375
-9.91,1660301159.953125
-12.48,1660301159.96875
-14.35,1660301159.984375
-15.55,1660301160.0
-16.25,1660301160.015625
-16.85,1660301160.03125
-17.81,1660301160.046875
-19.36,1660301160.0625
-21.48,1660301160.078125
-23.68,1660301160.09375
-25.26,1660301160.109375
-25.53,1660301160.125
-24.12,1660301160.140625
-21.11,1660301160.15625
-17.01,1660301160.171875
-12.5,1660301160.1875
-8.19,1660301160.203125
-4.4,1660301160.21875
-1.17,1660301160.234375
1.69,1660301160.25
4.39,1660301160.265625
7.11,1660301160.28125
9.85,1660301160.296875
12.48,1660301160.3125
14.8,1660301160.328125
16.66,1660301160.34375
17.99,1660301160.359375
18.91,1660301160.375
19.55,1660301160.390625
20.03,1660301160.40625
20.36,1660301160.421875
20.42,1660301160.4375
20.12,1660301160.453125
19.47,1660301160.46875
18.61,1660301160.484375
17.71,1660301160.5
16.85,1660301160.515625
15.94,1660301160.53125
14.76,1660301160.546875
13.1,1660301160.5625
10.82,1660301160.578125
7.99,1660301160.59375
4.85,1660301160.609375
1.7,1660301160.625
-1.21,1660301160.640625
-3.73,1660301160.65625
-5.89,1660301160.671875
-7.82,1660301160.6875
-9.78,1660301160.703125
-11.99,1660301160.71875
-14.65,1660301160.734375
-17.8,1660301160.75
-21.26,1660301160.765625
-24.64,1660301160.78125
-27.39,1660301160.796875
-29.03,1660301160.8125
-29.24,1660301160.828125
-27.99,1660301160.84375
-25.5,1660301160.859375
-22.16,1660301160.875
-18.42,1660301160.890625
-14.66,1660301160.90625
-11.08,1660301160.921875
-7.77,1660301160.9375
-4.7,1660301160.953125
-1.87,1660301160.96875
0.69,1660301160.984375
2.87,1660301161.0
4.53,1660301161.015625
5.66,1660301161.03125
6.29,1660301161.046875
6.65,1660301161.0625
6.92,1660301161.078125
7.26,1660301161.09375
7.65,1660301161.109375
7.94,1660301161.125
8.01,1660301161.140625
7.83,1660301161.15625
7.51,1660301161.171875
7.2,1660301161.1875
6.9,1660301161.203125
6.45,1660301161.21875
5.59,1660301161.234375
4.1,1660301161.25
2.0,1660301161.265625
-0.43,1660301161.28125
-2.74,1660301161.296875
-4.47,1660301161.3125
-5.39,1660301161.328125
-5.5,1660301161.34375
-5.06,1660301161.359375
-4.42,1660301161.375
-3.87,1660301161.390625
-3.69,1660301161.40625
-4.03,1660301161.421875
-5.03,1660301161.4375
-6.73,1660301161.453125
-9.08,1660301161.46875
-11.84,1660301161.484375
-14.53,1660301161.5
-16.61,1660301161.515625
-17.49,1660301161.53125
-16.82,1660301161.546875
-14.6,1660301161.5625
-11.25,1660301161.578125
-7.41,1660301161.59375
-3.72,1660301161.609375
-0.62,1660301161.625
1.75,1660301161.640625
3.56,1660301161.65625
5.1,1660301161.671875
6.59,1660301161.6875
8.12,1660301161.703125
9.58,1660301161.71875
10.77,1660301161.734375
11.47,1660301161.75
11.54,1660301161.765625
11.0,1660301161.78125
9.95,1660301161.796875
8.63,1660301161.8125
7.31,1660301161.828125
6.18,1660301161.84375
5.29,1660301161.859375
4.57,1660301161.875
3.9,1660301161.890625
3.13,1660301161.90625
2.28,1660301161.921875
1.4,1660301161.9375
0.68,1660301161.953125
0.15,1660301161.96875
-0.26,1660301161.984375
-0.77,1660301162.0
-1.65,1660301162.015625
-3.05,1660301162.03125
-4.89,1660301162.046875
-6.9,1660301162.0625
-8.74,1660301162.078125
-10.23,1660301162.09375
-11.45,1660301162.109375
-12.67,1660301162.125
-14.27,1660301162.140625
-16.49,1660301162.15625
-19.32,1660301162.171875
-22.49,1660301162.1875
-25.65,1660301162.203125
-28.4,1660301162.21875
-30.41,1660301162.234375
-31.47,1660301162.25
-31.4,1660301162.265625
-30.13,1660301162.28125
-27.73,1660301162.296875
-24.45,1660301162.3125
-20.64,1660301162.328125
-16.72,1660301162.34375
-13.07,1660301162.359375
-9.96,1660301162.375
-7.5,1660301162.390625
-5.76,1660301162.40625
-4.72,1660301162.421875
-4.27,1660301162.4375
-4.19,1660301162.453125
-4.08,1660301162.46875
-3.51,1660301162.484375
-2.21,1660301162.5
-0.19,1660301162.515625
2.11,1660301162.53125
3.93,1660301162.546875
4.46,1660301162.5625
3.19,1660301162.578125
0.09,1660301162.59375
-4.34,1660301162.609375
-9.28,1660301162.625
-13.96,1660301162.640625
-17.85,1660301162.65625
-20.85,1660301162.671875
-23.32,1660301162.6875
-25.78,1660301162.703125
-28.81,1660301162.71875
-32.88,1660301162.734375
-38.14,1660301162.75
-44.42,1660301162.765625
-51.18,1660301162.78125
-57.63,1660301162.796875
-63.13,1660301162.8125
-67.49,1660301162.828125
-71.3,1660301162.84375
-75.88,1660301162.859375
-82.7,1660301162.875
-92.61,1660301162.890625
-105.04,1660301162.90625
-117.81,1660301162.921875
-127.58,1660301162.9375
-130.97,1660301162.953125
-125.77,1660301162.96875
-111.78,1660301162.984375
-90.82,1660301163.0
-65.97,1660301163.015625
-40.55,1660301163.03125
-17.13,1660301163.046875
2.79,1660301163.0625
18.67,1660301163.078125
30.58,1660301163.09375
38.91,1660301163.109375
44.38,1660301163.125
48.04,1660301163.140625
51.12,1660301163.15625
54.64,1660301163.171875
58.91,1660301163.1875
63.3,1660301163.203125
66.52,1660301163.21875
67.13,1660301163.234375
64.26,1660301163.25
58.07,1660301163.265625
49.61,1660301163.28125
40.42,1660301163.296875
32.02,1660301163.3125
25.56,1660301163.328125
21.81,1660301163.34375
21.21,1660301163.359375
23.83,1660301163.375
29.24,1660301163.390625
36.44,1660301163.40625
43.93,1660301163.421875
50.18,1660301163.4375
54.24,1660301163.453125
56.13,1660301163.46875
56.89,1660301163.484375
57.98,1660301163.5
60.61,1660301163.515625
65.06,1660301163.53125
70.57,1660301163.546875
75.69,1660301163.5625
78.87,1660301163.578125
79.18,1660301163.59375
76.49,1660301163.609375
71.42,1660301163.625
65.04,1660301163.640625
58.48,1660301163.65625
52.63,1660301163.671875
48.04,1660301163.6875
44.9,1660301163.703125
43.11,1660301163.71875
42.41,1660301163.734375
42.47,1660301163.75
42.97,1660301163.765625
43.6,1660301163.78125
43.99,1660301163.796875
43.77,1660301163.8125
42.56,1660301163.828125
40.12,1660301163.84375
36.44,1660301163.859375
31.83,1660301163.875
26.73,1660301163.890625
21.65,1660301163.90625
16.86,1660301163.921875
12.42,1660301163.9375
8.06,1660301163.953125
3.46,1660301163.96875
-1.7,1660301163.984375
-7.53,1660301164.0
-13.93,1660301164.015625
-20.61,1660301164.03125
-27.22,1660301164.046875
-33.34,1660301164.0625
-38.67,1660301164.078125
-42.98,1660301164.09375
-46.19,1660301164.109375
-48.45,1660301164.125
-49.95,1660301164.140625
-50.95,1660301164.15625
-51.61,1660301164.171875
-51.93,1660301164.1875
-51.7,1660301164.203125
-50.63,1660301164.21875
-48.35,1660301164.234375
-44.45,1660301164.25
-38.68,1660301164.265625
-30.97,1660301164.28125
-21.67,1660301164.296875
-11.52,1660301164.3125
-1.6,1660301164.328125
6.93,1660301164.34375
13.13,1660301164.359375
16.59,1660301164.375
17.49,1660301164.390625
16.53,1660301164.40625
14.61,1660301164.421875
12.54,1660301164.4375
10.9,1660301164.453125
9.92,1660301164.46875
9.61,1660301164.484375
9.72,1660301164.5
9.97,1660301164.515625
10.12,1660301164.53125
10.03,1660301164.546875
9.76,1660301164.5625
9.54,1660301164.578125
9.64,1660301164.59375
10.3,1660301164.609375
11.53,1660301164.625
13.11,1660301164.640625
14.66,1660301164.65625
15.76,1660301164.671875
16.14,1660301164.6875
15.66,1660301164.703125
14.36,1660301164.71875
12.29,1660301164.734375
9.55,1660301164.75
6.22,1660301164.765625
2.45,1660301164.78125
-1.56,1660301164.796875
-5.58,1660301164.8125
-9.47,1660301164.828125
-13.18,1660301164.84375
-16.81,1660301164.859375
-20.47,1660301164.875
-24.14,1660301164.890625
-27.65,1660301164.90625
-30.63,1660301164.921875
-32.74,1660301164.9375
-33.83,1660301164.953125
-34.01,1660301164.96875
-33.59,1660301164.984375
-32.94,1660301165.0
-32.33,1660301165.015625
-31.83,1660301165.03125
-31.27,1660301165.046875
-30.38,1660301165.0625
-28.9,1660301165.078125
-26.67,1660301165.09375
-23.71,1660301165.109375
-20.13,1660301165.125
-16.13,1660301165.140625
-11.96,1660301165.15625
-7.85,1660301165.171875
-3.98,1660301165.1875
-0.49,1660301165.203125
2.62,1660301165.21875
5.44,1660301165.234375
8.16,1660301165.25
11.01,1660301165.265625
14.12,1660301165.28125
17.51,1660301165.296875
21.03,1660301165.3125
24.41,1660301165.328125
27.33,1660301165.34375
29.57,1660301165.359375
31.0,1660301165.375
31.61,1660301165.390625
31.48,1660301165.40625
30.68,1660301165.421875
29.25,1660301165.4375
27.19,1660301165.453125
24.45,1660301165.46875
21.08,1660301165.484375
17.27,1660301165.5
13.39,1660301165.515625
9.94,1660301165.53125
7.46,1660301165.546875
6.27,1660301165.5625
6.41,1660301165.578125
7.53,1660301165.59375
9.04,1660301165.609375
10.32,1660301165.625
10.9,1660301165.640625
10.65,1660301165.65625
9.74,1660301165.671875
8.5,1660301165.6875
7.18,1660301165.703125
5.82,1660301165.71875
4.29,1660301165.734375
2.37,1660301165.75
-0.07,1660301165.765625
-2.95,1660301165.78125
-6.04,1660301165.796875
-9.07,1660301165.8125
-11.87,1660301165.828125
-14.5,1660301165.84375
-17.1,1660301165.859375
-19.82,1660301165.875
-22.63,1660301165.890625
-25.26,1660301165.90625
-27.34,1660301165.921875
-28.56,1660301165.9375
-28.8,1660301165.953125
-28.17,1660301165.96875
-26.91,1660301165.984375
-25.08,1660301166.0
-22.57,1660301166.015625
-19.08,1660301166.03125
-14.34,1660301166.046875
-8.33,1660301166.0625
-1.4,1660301166.078125
5.77,1660301166.09375
12.48,1660301166.109375
18.2,1660301166.125
22.83,1660301166.140625
26.56,1660301166.15625
29.76,1660301166.171875
32.78,1660301166.1875
35.87,1660301166.203125
39.11,1660301166.21875
42.56,1660301166.234375
46.21,1660301166.25
49.87,1660301166.265625
53.08,1660301166.28125
55.0,1660301166.296875
54.68,1660301166.3125
51.4,1660301166.328125
45.18,1660301166.34375
36.9,1660301166.359375
28.1,1660301166.375
20.43,1660301166.390625
14.93,1660301166.40625
11.58,1660301166.421875
9.33,1660301166.4375
6.65,1660301166.453125
2.43,1660301166.46875
-3.44,1660301166.484375
-9.84,1660301166.5
-14.83,1660301166.515625
-16.61,1660301166.53125
-14.29,1660301166.546875
-8.29,1660301166.5625
-0.1,1660301166.578125
8.42,1660301166.59375
15.79,1660301166.609375
21.37,1660301166.625
25.27,1660301166.640625
27.9,1660301166.65625
29.55,1660301166.671875
30.12,1660301166.6875
29.29,1660301166.703125
26.82,1660301166.71875
22.84,1660301166.734375
17.88,1660301166.75
12.61,1660301166.765625
7.58,1660301166.78125
3.01,1660301166.796875
-1.15,1660301166.8125
-5.08,1660301166.828125
-8.91,1660301166.84375
-12.59,1660301166.859375
-15.94,1660301166.875
-18.73,1660301166.890625
-20.81,1660301166.90625
-22.09,1660301166.921875
-22.64,1660301166.9375
-22.59,1660301166.953125
-22.1,1660301166.96875
-21.31,1660301166.984375
-20.29,1660301167.0
-19.0,1660301167.015625
-17.26,1660301167.03125
-14.93,1660301167.046875
-11.99,1660301167.0625
-8.7,1660301167.078125
-5.48,1660301167.09375
-2.79,1660301167.109375
-0.9,1660301167.125
0.24,1660301167.140625
0.97,1660301167.15625
1.61,1660301167.171875
2.39,1660301167.1875
3.19,1660301167.203125
3.65,1660301167.21875
3.4,1660301167.234375
2.21,1660301167.25
0.24,1660301167.265625
-2.13,1660301167.28125
-4.43,1660301167.296875
-6.31,1660301167.3125
-7.72,1660301167.328125
-8.81,1660301167.34375
-9.9,1660301167.359375
-11.22,1660301167.375
-12.82,1660301167.390625
-14.6,1660301167.40625
-16.33,1660301167.421875
-17.77,1660301167.4375
-18.72,1660301167.453125
-19.03,1660301167.46875
-18.64,1660301167.484375
-17.59,1660301167.5
-16.0,1660301167.515625
-14.12,1660301167.53125
-12.2,1660301167.546875
-10.55,1660301167.5625
-9.36,1660301167.578125
-8.67,1660301167.59375
-8.4,1660301167.609375
-8.4,1660301167.625
-8.51,1660301167.640625
-8.68,1660301167.65625
-8.93,1660301167.671875
-9.31,1660301167.6875
-9.81,1660301167.703125
-10.35,1660301167.71875
-10.77,1660301167.734375
-10.91,1660301167.75
-10.72,1660301167.765625
-10.26,1660301167.78125
-9.73,1660301167.796875
-9.4,1660301167.8125
-9.43,1660301167.828125
-9.93,1660301167.84375
-10.78,1660301167.859375
-11.84,1660301167.875
-12.91,1660301167.890625
-13.83,1660301167.90625
-14.54,1660301167.921875
-15.06,1660301167.9375
-15.44,1660301167.953125
-15.74,1660301167.96875
-16.0,1660301167.984375
-16.23,1660301168.0
-16.54,1660301168.015625
-17.01,1660301168.03125
-17.69,1660301168.046875
-18.52,1660301168.0625
-19.27,1660301168.078125
-19.69,1660301168.09375
-19.58,1660301168.109375
-18.99,1660301168.125
-18.19,1660301168.140625
-17.56,1660301168.15625
-17.44,1660301168.171875
-17.87,1660301168.1875
-18.66,1660301168.203125
-19.38,1660301168.21875
-19.68,1660301168.234375
-19.32,1660301168.25
-18.32,1660301168.265625
-16.83,1660301168.28125
-15.09,1660301168.296875
-13.31,1660301168.3125
-11.58,1660301168.328125
-9.94,1660301168.34375
-8.31,1660301168.359375
-6.61,1660301168.375
-4.85,1660301168.390625
-3.11,1660301168.40625
-1.53,1660301168.421875
-0.31,1660301168.4375
0.49,1660301168.453125
0.87,1660301168.46875
0.95,1660301168.484375
0.87,1660301168.5
0.65,1660301168.515625
0.22,1660301168.53125
-0.57,1660301168.546875
-1.77,1660301168.5625
-3.33,1660301168.578125
-5.1,1660301168.59375
-6.87,1660301168.609375
-8.51,1660301168.625
-9.83,1660301168.640625
-10.56,1660301168.65625
-10.3,1660301168.671875
-8.59,1660301168.6875
-5.1,1660301168.703125
0.1,1660301168.71875
6.52,1660301168.734375
13.41,1660301168.75
19.94,1660301168.765625
25.63,1660301168.78125
30.28,1660301168.796875
34.05,1660301168.8125
37.22,1660301168.828125
40.04,1660301168.84375
42.6,1660301168.859375
44.9,1660301168.875
46.84,1660301168.890625
48.2,1660301168.90625
48.71,1660301168.921875
48.04,1660301168.9375
45.97,1660301168.953125
42.53,1660301168.96875
38.02,1660301168.984375
33.07,1660301169.0
28.44,1660301169.015625
24.79,1660301169.03125
22.43,1660301169.046875
21.17,1660301169.0625
20.41,1660301169.078125
19.34,1660301169.09375
17.32,1660301169.109375
14.12,1660301169.125
10.07,1660301169.140625
5.9,1660301169.15625
2.48,1660301169.171875
0.4,1660301169.1875
-0.16,1660301169.203125
0.51,1660301169.21875
1.75,1660301169.234375
2.86,1660301169.25
3.26,1660301169.265625
2.6,1660301169.28125
0.84,1660301169.296875
-1.9,1660301169.3125
-5.33,1660301169.328125
-9.04,1660301169.34375
-12.64,1660301169.359375
-15.74,1660301169.375
-18.08,1660301169.390625
-19.56,1660301169.40625
-20.19,1660301169.421875
-20.15,1660301169.4375
-19.65,1660301169.453125
-18.86,1660301169.46875
-17.87,1660301169.484375
-16.72,1660301169.5
-15.37,1660301169.515625
-13.8,1660301169.53125
-12.0,1660301169.546875
-10.0,1660301169.5625
-7.91,1660301169.578125
-5.9,1660301169.59375
-4.21,1660301169.609375
-3.07,1660301169.625
-2.67,1660301169.640625
-3.01,1660301169.65625
-3.94,1660301169.671875
-5.16,1660301169.6875
-6.39,1660301169.703125
-7.46,1660301169.71875
-8.3,1660301169.734375
-8.99,1660301169.75
-9.57,1660301169.765625
-10.08,1660301169.78125
-10.48,1660301169.796875
-10.79,1660301169.8125
-11.05,1660301169.828125
-11.44,1660301169.84375
-12.01,1660301169.859375
-12.68,1660301169.875
-13.2,1660301169.890625
-13.19,1660301169.90625
-12.39,1660301169.921875
-10.79,1660301169.9375
-8.67,1660301169.953125
-6.5,1660301169.96875
-4.68,1660301169.984375
-3.39,1660301170.0
-2.49,1660301170.015625
-1.68,1660301170.03125
-0.71,1660301170.046875
0.42,1660301170.0625
1.5,1660301170.078125
2.19,1660301170.09375
2.28,1660301170.109375
1.8,1660301170.125
0.99,1660301170.140625
0.19,1660301170.15625
-0.35,1660301170.171875
-0.58,1660301170.1875
-0.59,1660301170.203125
-0.55,1660301170.21875
-0.53,1660301170.234375
-0.53,1660301170.25
-0.49,1660301170.265625
-0.43,1660301170.28125
-0.43,1660301170.296875
-0.66,1660301170.3125
-1.24,1660301170.328125
-2.18,1660301170.34375
-3.37,1660301170.359375
-4.66,1660301170.375
-5.96,1660301170.390625
-7.31,1660301170.40625
-8.84,1660301170.421875
-10.65,1660301170.4375
-12.75,1660301170.453125
-14.93,1660301170.46875
-16.89,1660301170.484375
-18.26,1660301170.5
-18.78,1660301170.515625
-18.36,1660301170.53125
-17.09,1660301170.546875
-15.29,1660301170.5625
-13.36,1660301170.578125
-11.74,1660301170.59375
-10.71,1660301170.609375
-10.4,1660301170.625
-10.71,1660301170.640625
-11.39,1660301170.65625
-12.12,1660301170.671875
-12.67,1660301170.6875
-12.95,1660301170.703125
-12.99,1660301170.71875
-12.89,1660301170.734375
-12.64,1660301170.75
-12.24,1660301170.765625
-11.63,1660301170.78125
-10.84,1660301170.796875
-10.01,1660301170.8125
-9.38,1660301170.828125
-9.23,1660301170.84375
-9.7,1660301170.859375
-10.79,1660301170.875
-12.3,1660301170.890625
-13.99,1660301170.90625
-15.62,1660301170.921875
-17.06,1660301170.9375
-18.22,1660301170.953125
-19.06,1660301170.96875
-19.51,1660301170.984375
-19.56,1660301171.0
-19.28,1660301171.015625
-18.86,1660301171.03125
-18.57,1660301171.046875
-18.59,1660301171.0625
-18.93,1660301171.078125
-19.34,1660301171.09375
-19.42,1660301171.109375
-18.86,1660301171.125
-17.57,1660301171.140625
-15.83,1660301171.15625
-14.06,1660301171.171875
-12.7,1660301171.1875
-12.01,1660301171.203125
-11.96,1660301171.21875
-12.39,1660301171.234375
-13.04,1660301171.25
-13.69,1660301171.265625
-14.12,1660301171.28125
-14.17,1660301171.296875
-13.67,1660301171.3125
-12.63,1660301171.328125
-11.27,1660301171.34375
-10.0,1660301171.359375
-9.25,1660301171.375
-9.09,1660301171.390625
-9.18,1660301171.40625
-8.61,1660301171.421875
-6.28,1660301171.4375
-1.24,1660301171.453125
6.81,1660301171.46875
17.45,1660301171.484375
29.6,1660301171.5
41.87,1660301171.515625
52.94,1660301171.53125
61.81,1660301171.546875
67.95,1660301171.5625
71.28,1660301171.578125
72.16,1660301171.59375
71.25,1660301171.609375
69.42,1660301171.625
67.5,1660301171.640625
66.08,1660301171.65625
65.29,1660301171.671875
64.87,1660301171.6875
64.21,1660301171.703125
62.67,1660301171.71875
59.8,1660301171.734375
55.45,1660301171.75
49.74,1660301171.765625
42.92,1660301171.78125
35.22,1660301171.796875
26.9,1660301171.8125
18.17,1660301171.828125
9.33,1660301171.84375
0.73,1660301171.859375
-7.28,1660301171.875
-14.4,1660301171.890625
-20.47,1660301171.90625
-25.39,1660301171.921875
-29.14,1660301171.9375
-31.69,1660301171.953125
-33.06,1660301171.96875
-33.31,1660301171.984375
-32.67,1660301172.0
-31.47,1660301172.015625
-30.09,1660301172.03125
-28.79,1660301172.046875
-27.63,1660301172.0625
-26.49,1660301172.078125
-25.13,1660301172.09375
-23.44,1660301172.109375
-21.46,1660301172.125
-19.45,1660301172.140625
-17.77,1660301172.15625
-16.68,1660301172.171875
-16.27,1660301172.1875
-16.4,1660301172.203125
-16.88,1660301172.21875
-17.44,1660301172.234375
-17.9,1660301172.25
-18.07,1660301172.265625
-17.71,1660301172.28125
-16.63,1660301172.296875
-14.74,1660301172.3125
-12.13,1660301172.328125
-9.16,1660301172.34375
-6.3,1660301172.359375
-3.97,1660301172.375
-2.39,1660301172.390625
-1.5,1660301172.40625
-1.03,1660301172.421875
-0.75,1660301172.4375
-0.49,1660301172.453125
-0.23,1660301172.46875
0.0,1660301172.484375
0.21,1660301172.5
0.46,1660301172.515625
0.72,1660301172.53125
0.95,1660301172.546875
1.01,1660301172.5625
0.77,1660301172.578125
0.24,1660301172.59375
-0.5,1660301172.609375
-1.28,1660301172.625
-1.98,1660301172.640625
-2.59,1660301172.65625
-3.19,1660301172.671875
-3.87,1660301172.6875
-4.64,1660301172.703125
-5.45,1660301172.71875
-6.22,1660301172.734375
-6.94,1660301172.75
-7.75,1660301172.765625
-8.81,1660301172.78125
-10.2,1660301172.796875
-11.8,1660301172.8125
-13.27,1660301172.828125
-14.15,1660301172.84375
-14.09,1660301172.859375
-13.04,1660301172.875
-11.28,1660301172.890625
-9.3,1660301172.90625
-7.58,1660301172.921875
-6.41,1660301172.9375
-5.8,1660301172.953125
-5.55,1660301172.96875
-5.38,1660301172.984375
-5.12,1660301173.0
-4.7,1660301173.015625
-4.21,1660301173.03125
-3.76,1660301173.046875
-3.44,1660301173.0625
-3.27,1660301173.078125
-3.13,1660301173.09375
-2.9,1660301173.109375
-2.42,1660301173.125
-1.63,1660301173.140625
-0.58,1660301173.15625
0.63,1660301173.171875
1.84,1660301173.1875
2.95,1660301173.203125
3.94,1660301173.21875
4.83,1660301173.234375
5.59,1660301173.25
6.13,1660301173.265625
6.27,1660301173.28125
5.88,1660301173.296875
4.93,1660301173.3125
3.52,1660301173.328125
1.89,1660301173.34375
0.23,1660301173.359375
-1.34,1660301173.375
-2.8,1660301173.390625
-4.15,1660301173.40625
-5.3,1660301173.421875
-6.07,1660301173.4375
-6.29,1660301173.453125
-5.87,1660301173.46875
-4.92,1660301173.484375
-3.81,1660301173.5
-2.88,1660301173.515625
-2.34,1660301173.53125
-2.14,1660301173.546875
-1.94,1660301173.5625
-1.38,1660301173.578125
-0.21,1660301173.59375
1.58,1660301173.609375
3.68,1660301173.625
5.67,1660301173.640625
7.17,1660301173.65625
7.91,1660301173.671875
7.92,1660301173.6875
7.44,1660301173.703125
6.85,1660301173.71875
6.5,1660301173.734375
6.57,1660301173.75
6.98,1660301173.765625
7.47,1660301173.78125
7.76,1660301173.796875
7.69,1660301173.8125
7.32,1660301173.828125
6.98,1660301173.84375
7.01,1660301173.859375
7.63,1660301173.875
8.85,1660301173.890625
10.47,1660301173.90625
12.18,1660301173.921875
13.76,1660301173.9375
15.03,1660301173.953125
15.91,1660301173.96875
16.44,1660301173.984375
16.76,1660301174.0
17.08,1660301174.015625
17.63,1660301174.03125
18.62,1660301174.046875
20.07,1660301174.0625
21.84,1660301174.078125
23.67,1660301174.09375
25.37,1660301174.109375
26.85,1660301174.125
28.21,1660301174.140625
29.57,1660301174.15625
30.94,1660301174.171875
32.21,1660301174.1875
33.11,1660301174.203125
33.37,1660301174.21875
32.9,1660301174.234375
31.77,1660301174.25
30.15,1660301174.265625
28.19,1660301174.28125
25.94,1660301174.296875
23.39,1660301174.3125
20.6,1660301174.328125
17.87,1660301174.34375
15.62,1660301174.359375
14.11,1660301174.375
13.01,1660301174.390625
11.25,1660301174.40625
7.35,1660301174.421875
0.2,1660301174.4375
-10.13,1660301174.453125
-22.01,1660301174.46875
-32.68,1660301174.484375
-39.32,1660301174.5
-40.11,1660301174.515625
-34.82,1660301174.53125
-24.61,1660301174.546875
-11.43,1660301174.5625
2.71,1660301174.578125
16.02,1660301174.59375
26.86,1660301174.609375
33.64,1660301174.625
35.05,1660301174.640625
30.52,1660301174.65625
20.61,1660301174.671875
7.19,1660301174.6875
-7.12,1660301174.703125
-19.83,1660301174.71875
-29.21,1660301174.734375
-34.73,1660301174.75
-36.79,1660301174.765625
-36.29,1660301174.78125
-34.18,1660301174.796875
-31.16,1660301174.8125
-27.69,1660301174.828125
-24.07,1660301174.84375
-20.59,1660301174.859375
-17.53,1660301174.875
-15.11,1660301174.890625
-13.4,1660301174.90625
-12.32,1660301174.921875
-11.69,1660301174.9375
-11.3,1660301174.953125
-10.95,1660301174.96875
-10.5,1660301174.984375
-9.85,1660301175.0
-8.97,1660301175.015625
-7.87,1660301175.03125
-6.63,1660301175.046875
-5.38,1660301175.0625
-4.3,1660301175.078125
-3.51,1660301175.09375
-3.09,1660301175.109375
-3.03,1660301175.125
-3.35,1660301175.140625
-4.03,1660301175.15625
-5.06,1660301175.171875
-6.35,1660301175.1875
-7.7,1660301175.203125
-8.83,1660301175.21875
-9.48,1660301175.234375
-9.56,1660301175.25
-9.24,1660301175.265625
-8.86,1660301175.28125
-8.71,1660301175.296875
-8.99,1660301175.3125
-9.6,1660301175.328125
-10.25,1660301175.34375
-10.62,1660301175.359375
-10.52,1660301175.375
-9.95,1660301175.390625
-9.09,1660301175.40625
-8.16,1660301175.421875
-7.29,1660301175.4375
-6.56,1660301175.453125
-6.0,1660301175.46875
-5.56,1660301175.484375
-5.28,1660301175.5
-5.2,1660301175.515625
-5.32,1660301175.53125
-5.67,1660301175.546875
-6.2,1660301175.5625
-6.84,1660301175.578125
-7.48,1660301175.59375
-8.03,1660301175.609375
-8.43,1660301175.625
-8.6,1660301175.640625
-8.56,1660301175.65625
-8.39,1660301175.671875
-8.2,1660301175.6875
-8.12,1660301175.703125
-8.24,1660301175.71875
-8.62,1660301175.734375
-9.27,1660301175.75
-10.14,1660301175.765625
-11.19,1660301175.78125
-12.25,1660301175.796875
-13.15,1660301175.8125
-13.62,1660301175.828125
-13.51,1660301175.84375
-12.82,1660301175.859375
-11.78,1660301175.875
-10.74,1660301175.890625
-10.07,1660301175.90625
-10.0,1660301175.921875
-10.51,1660301175.9375
-11.41,1660301175.953125
-12.46,1660301175.96875
-13.53,1660301175.984375
-14.62,1660301176.0
-15.84,1660301176.015625
-17.29,1660301176.03125
-19.02,1660301176.046875
-21.0,1660301176.0625
-23.12,1660301176.078125
-25.2,1660301176.09375
-26.98,1660301176.109375
-28.24,1660301176.125
-28.75,1660301176.140625
-28.45,1660301176.15625
-27.32,1660301176.171875
-25.44,1660301176.1875
-22.89,1660301176.203125
-19.67,1660301176.21875
-15.85,1660301176.234375
-11.59,1660301176.25
-7.28,1660301176.265625
-3.46,1660301176.28125
-0.56,1660301176.296875
1.26,1660301176.3125
2.33,1660301176.328125
3.4,1660301176.34375
5.33,1660301176.359375
8.79,1660301176.375
14.0,1660301176.390625
20.75,1660301176.40625
28.57,1660301176.421875
36.97,1660301176.4375
45.55,1660301176.453125
54.02,1660301176.46875
62.09,1660301176.484375
69.48,1660301176.5
75.84,1660301176.515625
80.93,1660301176.53125
84.52,1660301176.546875
86.43,1660301176.5625
86.3,1660301176.578125
83.64,1660301176.59375
77.95,1660301176.609375
69.05,1660301176.625
57.42,1660301176.640625
44.28,1660301176.65625
31.43,1660301176.671875
20.54,1660301176.6875
12.66,1660301176.703125
7.82,1660301176.71875
5.17,1660301176.734375
3.38,1660301176.75
1.32,1660301176.765625
-1.52,1660301176.78125
-4.98,1660301176.796875
-8.36,1660301176.8125
-10.94,1660301176.828125
-12.18,1660301176.84375
-11.96,1660301176.859375
-10.49,1660301176.875
-8.23,1660301176.890625
-5.76,1660301176.90625
-3.71,1660301176.921875
-2.59,1660301176.9375
-2.79,1660301176.953125
-4.43,1660301176.96875
-7.28,1660301176.984375
-10.83,1660301177.0
-14.39,1660301177.015625
-17.32,1660301177.03125
-19.19,1660301177.046875
-19.93,1660301177.0625
-19.8,1660301177.078125
-19.18,1660301177.09375
-18.49,1660301177.109375
-17.93,1660301177.125
-17.54,1660301177.140625
-17.22,1660301177.15625
-16.89,1660301177.171875
-16.59,1660301177.1875
-16.39,1660301177.203125
-16.42,1660301177.21875
-16.67,1660301177.234375
-17.01,1660301177.25
-17.22,1660301177.265625
-17.17,1660301177.28125
-16.82,1660301177.296875
-16.25,1660301177.3125
-15.6,1660301177.328125
-15.0,1660301177.34375
-14.48,1660301177.359375
-14.0,1660301177.375
-13.5,1660301177.390625
-12.95,1660301177.40625
-12.38,1660301177.421875
-11.84,1660301177.4375
-11.41,1660301177.453125
-11.18,1660301177.46875
-11.14,1660301177.484375
-11.3,1660301177.5
-11.63,1660301177.515625
-12.06,1660301177.53125
-12.54,1660301177.546875
-12.94,1660301177.5625
-13.15,1660301177.578125
-12.96,1660301177.59375
-12.19,1660301177.609375
-10.72,1660301177.625
-8.58,1660301177.640625
-5.95,1660301177.65625
-3.15,1660301177.671875
-0.47,1660301177.6875
1.87,1660301177.703125
3.79,1660301177.71875
5.33,1660301177.734375
6.58,1660301177.75
7.57,1660301177.765625
8.26,1660301177.78125
8.55,1660301177.796875
8.37,1660301177.8125
7.8,1660301177.828125
6.98,1660301177.84375
6.13,1660301177.859375
5.38,1660301177.875
4.81,1660301177.890625
4.36,1660301177.90625
3.92,1660301177.921875
3.41,1660301177.9375
2.84,1660301177.953125
2.28,1660301177.96875
1.83,1660301177.984375
1.51,1660301178.0
1.22,1660301178.015625
0.82,1660301178.03125
0.21,1660301178.046875
-0.6,1660301178.0625
-1.53,1660301178.078125
-2.52,1660301178.09375
-3.62,1660301178.109375
-5.01,1660301178.125
-6.83,1660301178.140625
-9.11,1660301178.15625
-11.71,1660301178.171875
-14.29,1660301178.1875
-16.51,1660301178.203125
-18.12,1660301178.21875
-19.0,1660301178.234375
-19.24,1660301178.25
-18.93,1660301178.265625
-18.22,1660301178.28125
-17.26,1660301178.296875
-16.15,1660301178.3125
-14.95,1660301178.328125
-13.61,1660301178.34375
-11.97,1660301178.359375
-9.81,1660301178.375
-6.95,1660301178.390625
-3.45,1660301178.40625
0.37,1660301178.421875
4.01,1660301178.4375
7.0,1660301178.453125
9.08,1660301178.46875
10.34,1660301178.484375
11.1,1660301178.5
11.75,1660301178.515625
12.51,1660301178.53125
13.38,1660301178.546875
14.12,1660301178.5625
14.55,1660301178.578125
14.65,1660301178.59375
14.6,1660301178.609375
14.62,1660301178.625
14.86,1660301178.640625
15.22,1660301178.65625
15.41,1660301178.671875
15.15,1660301178.6875
14.33,1660301178.703125
13.11,1660301178.71875
11.81,1660301178.734375
10.68,1660301178.75
9.77,1660301178.765625
8.94,1660301178.78125
8.03,1660301178.796875
7.03,1660301178.8125
6.22,1660301178.828125
6.04,1660301178.84375
6.89,1660301178.859375
8.91,1660301178.875
11.92,1660301178.890625
15.52,1660301178.90625
19.23,1660301178.921875
22.7,1660301178.9375
25.71,1660301178.953125
28.23,1660301178.96875
30.21,1660301178.984375
31.64,1660301179.0
32.58,1660301179.015625
33.14,1660301179.03125
33.6,1660301179.046875
34.22,1660301179.0625
34.89,1660301179.078125
34.81,1660301179.09375
32.56,1660301179.109375
26.57,1660301179.125
15.99,1660301179.140625
1.43,1660301179.15625
-14.88,1660301179.171875
-29.59,1660301179.1875
-39.43,1660301179.203125
-42.3,1660301179.21875
-37.93,1660301179.234375
-27.65,1660301179.25
-13.79,1660301179.265625
1.13,1660301179.28125
14.79,1660301179.296875
25.27,1660301179.3125
31.09,1660301179.328125
31.34,1660301179.34375
26.04,1660301179.359375
16.32,1660301179.375
4.23,1660301179.390625
-7.76,1660301179.40625
-17.54,1660301179.421875
-23.86,1660301179.4375
-26.49,1660301179.453125
-26.04,1660301179.46875
-23.55,1660301179.484375
-20.11,1660301179.5
-16.53,1660301179.515625
-13.31,1660301179.53125
-10.62,1660301179.546875
-8.39,1660301179.5625
-6.4,1660301179.578125
-4.42,1660301179.59375
-2.37,1660301179.609375
-0.32,1660301179.625
1.58,1660301179.640625
3.17,1660301179.65625
4.47,1660301179.671875
5.57,1660301179.6875
6.65,1660301179.703125
7.76,1660301179.71875
8.85,1660301179.734375
9.72,1660301179.75
10.09,1660301179.765625
9.83,1660301179.78125
8.94,1660301179.796875
7.6,1660301179.8125
6.03,1660301179.828125
4.42,1660301179.84375
2.81,1660301179.859375
1.13,1660301179.875
-0.7,1660301179.890625
-2.72,1660301179.90625
-4.8,1660301179.921875
-6.76,1660301179.9375
-8.41,1660301179.953125
-9.74,1660301179.96875
-10.88,1660301179.984375
-12.1,1660301180.0
-13.64,1660301180.015625
-15.51,1660301180.03125
-17.48,1660301180.046875
-19.13,1660301180.0625
-20.07,1660301180.078125
-20.16,1660301180.09375
-19.57,1660301180.109375
-18.62,1660301180.125
-17.65,1660301180.140625
-16.82,1660301180.15625
-16.05,1660301180.171875
-15.17,1660301180.1875
-14.04,1660301180.203125
-12.71,1660301180.21875
-11.39,1660301180.234375
-10.36,1660301180.25
-9.79,1660301180.265625
-9.71,1660301180.28125
-9.92,1660301180.296875
-10.16,1660301180.3125
-10.2,1660301180.328125
-9.9,1660301180.34375
-9.29,1660301180.359375
-8.52,1660301180.375
-7.73,1660301180.390625
-7.04,1660301180.40625
-6.48,1660301180.421875
-6.03,1660301180.4375
-5.64,1660301180.453125
-5.3,1660301180.46875
-5.06,1660301180.484375
-4.93,1660301180.5
-4.89,1660301180.515625
-4.9,1660301180.53125
-4.89,1660301180.546875
-4.92,1660301180.5625
-5.12,1660301180.578125
-5.65,1660301180.59375
-6.6,1660301180.609375
-7.92,1660301180.625
-9.43,1660301180.640625
-10.89,1660301180.65625
-12.06,1660301180.671875
-12.78,1660301180.6875
-12.97,1660301180.703125
-12.6,1660301180.71875
-11.75,1660301180.734375
-10.55,1660301180.75
-9.2,1660301180.765625
-7.85,1660301180.78125
-6.6,1660301180.796875
-5.32,1660301180.8125
-3.78,1660301180.828125
-1.7,1660301180.84375
1.01,1660301180.859375
4.22,1660301180.875
7.58,1660301180.890625
10.66,1660301180.90625
13.2,1660301180.921875
15.11,1660301180.9375
16.46,1660301180.953125
17.35,1660301180.96875
17.83,1660301180.984375
17.87,1660301181.0
17.49,1660301181.015625
16.8,1660301181.03125
16.04,1660301181.046875
15.44,1660301181.0625
15.1,1660301181.078125
14.86,1660301181.09375
14.46,1660301181.109375
13.7,1660301181.125
12.58,1660301181.140625
11.37,1660301181.15625
10.54,1660301181.171875
10.55,1660301181.1875
11.7,1660301181.203125
14.07,1660301181.21875
17.43,1660301181.234375
21.14,1660301181.25
24.05,1660301181.265625
24.78,1660301181.28125
22.13,1660301181.296875
15.72,1660301181.3125
6.36,1660301181.328125
-4.07,1660301181.34375
-13.17,1660301181.359375
-18.81,1660301181.375
-19.68,1660301181.390625
-15.59,1660301181.40625
-7.22,1660301181.421875
4.12,1660301181.4375
16.63,1660301181.453125
28.24,1660301181.46875
36.81,1660301181.484375
40.6,1660301181.5
38.83,1660301181.515625
31.98,1660301181.53125
21.66,1660301181.546875
10.1,1660301181.5625
-0.67,1660301181.578125
-9.38,1660301181.59375
-15.55,1660301181.609375
-19.29,1660301181.625
-21.03,1660301181.640625
-21.29,1660301181.65625
-20.65,1660301181.671875
-19.67,1660301181.6875
-18.84,1660301181.703125
-18.44,1660301181.71875
-18.44,1660301181.734375
-18.55,1660301181.75
-18.4,1660301181.765625
-17.71,1660301181.78125
-16.47,1660301181.796875
-14.86,1660301181.8125
-13.18,1660301181.828125
-11.7,1660301181.84375
-10.61,1660301181.859375
-9.95,1660301181.875
-9.54,1660301181.890625
-9.06,1660301181.90625
-8.11,1660301181.921875
-6.38,1660301181.9375
-3.8,1660301181.953125
-0.63,1660301181.96875
2.58,1660301181.984375
5.24,1660301182.0
6.98,1660301182.015625
7.78,1660301182.03125
7.91,1660301182.046875
7.78,1660301182.0625
7.66,1660301182.078125
7.64,1660301182.09375
7.67,1660301182.109375
7.68,1660301182.125
7.69,1660301182.140625
7.79,1660301182.15625
8.05,1660301182.171875
8.42,1660301182.1875
8.76,1660301182.203125
8.87,1660301182.21875
8.67,1660301182.234375
8.2,1660301182.25
7.61,1660301182.265625
7.08,1660301182.28125
6.69,1660301182.296875
6.38,1660301182.3125
6.09,1660301182.328125
5.77,1660301182.34375
5.43,1660301182.359375
5.17,1660301182.375
5.06,1660301182.390625
5.05,1660301182.40625
5.0,1660301182.421875
4.74,1660301182.4375
4.11,1660301182.453125
3.13,1660301182.46875
1.92,1660301182.484375
0.71,1660301182.5
-0.29,1660301182.515625
-0.9,1660301182.53125
-1.06,1660301182.546875
-0.8,1660301182.5625
-0.16,1660301182.578125
0.71,1660301182.59375
1.65,1660301182.609375
2.46,1660301182.625
2.95,1660301182.640625
2.95,1660301182.65625
2.41,1660301182.671875
1.39,1660301182.6875
0.05,1660301182.703125
-1.4,1660301182.71875
-2.79,1660301182.734375
-3.93,1660301182.75
-4.72,1660301182.765625
-5.1,1660301182.78125
-5.07,1660301182.796875
-4.7,1660301182.8125
-4.16,1660301182.828125
-3.6,1660301182.84375
-3.2,1660301182.859375
-3.05,1660301182.875
-3.2,1660301182.890625
-3.59,1660301182.90625
-4.16,1660301182.921875
-4.82,1660301182.9375
-5.51,1660301182.953125
-6.2,1660301182.96875
-6.94,1660301182.984375
-7.8,1660301183.0
-8.9,1660301183.015625
-10.29,1660301183.03125
-12.01,1660301183.046875
-14.04,1660301183.0625
-16.26,1660301183.078125
-18.52,1660301183.09375
-20.65,1660301183.109375
-22.46,1660301183.125
-23.85,1660301183.140625
-24.74,1660301183.15625
-25.15,1660301183.171875
-25.25,1660301183.1875
-25.27,1660301183.203125
-25.51,1660301183.21875
-26.25,1660301183.234375
-27.63,1660301183.25
-29.56,1660301183.265625
-31.73,1660301183.28125
-33.63,1660301183.296875
-34.71,1660301183.3125
-34.51,1660301183.328125
-32.84,1660301183.34375
-29.82,1660301183.359375
-25.81,1660301183.375
-21.17,1660301183.390625
-16.12,1660301183.40625
-10.68,1660301183.421875
-4.76,1660301183.4375
1.61,1660301183.453125
8.09,1660301183.46875
14.05,1660301183.484375
18.77,1660301183.5
21.71,1660301183.515625
22.81,1660301183.53125
22.55,1660301183.546875
21.64,1660301183.5625
20.8,1660301183.578125
20.4,1660301183.59375
20.41,1660301183.609375
20.54,1660301183.625
20.5,1660301183.640625
20.18,1660301183.65625
19.69,1660301183.671875
19.24,1660301183.6875
18.95,1660301183.703125
18.76,1660301183.71875
18.47,1660301183.734375
17.96,1660301183.75
17.26,1660301183.765625
16.57,1660301183.78125
16.13,1660301183.796875
16.08,1660301183.8125
16.27,1660301183.828125
16.39,1660301183.84375
16.08,1660301183.859375
15.08,1660301183.875
13.39,1660301183.890625
11.23,1660301183.90625
8.91,1660301183.921875
6.69,1660301183.9375
4.7,1660301183.953125
2.88,1660301183.96875
1.07,1660301183.984375
-0.85,1660301184.0
-2.88,1660301184.015625
-4.9,1660301184.03125
-6.66,1660301184.046875
-7.95,1660301184.0625
-8.7,1660301184.078125
-9.01,1660301184.09375
-9.11,1660301184.109375
-9.24,1660301184.125
-9.5,1660301184.140625
-9.82,1660301184.15625
-10.02,1660301184.171875
-9.94,1660301184.1875
-9.61,1660301184.203125
-9.17,1660301184.21875
-8.86,1660301184.234375
-8.84,1660301184.25
-9.11,1660301184.265625
-9.59,1660301184.28125
-10.14,1660301184.296875
-10.71,1660301184.3125
-11.21,1660301184.328125
-11.55,1660301184.34375
-11.53,1660301184.359375
-10.93,1660301184.375
-9.65,1660301184.390625
-7.79,1660301184.40625
-5.69,1660301184.421875
-3.76,1660301184.4375
-2.3,1660301184.453125
-1.35,1660301184.46875
-0.72,1660301184.484375
-0.16,1660301184.5
0.49,1660301184.515625
1.25,1660301184.53125
1.95,1660301184.546875
2.42,1660301184.5625
2.51,1660301184.578125
2.29,1660301184.59375
1.89,1660301184.609375
1.53,1660301184.625
1.34,1660301184.640625
1.33,1660301184.65625
1.37,1660301184.671875
1.26,1660301184.6875
0.86,1660301184.703125
0.2,1660301184.71875
-0.61,1660301184.734375
-1.34,1660301184.75
-1.83,1660301184.765625
-2.02,1660301184.78125
-2.04,1660301184.796875
-2.08,1660301184.8125
-2.35,1660301184.828125
-2.93,1660301184.84375
-3.76,1660301184.859375
-4.72,1660301184.875
-5.6,1660301184.890625
-6.26,1660301184.90625
-6.59,1660301184.921875
-6.53,1660301184.9375
-6.02,1660301184.953125
-5.13,1660301184.96875
-3.96,1660301184.984375
-2.7,1660301185.0
-1.62,1660301185.015625
-0.91,1660301185.03125
-0.64,1660301185.046875
-0.71,1660301185.0625
-0.96,1660301185.078125
-1.22,1660301185.09375
-1.46,1660301185.109375
-1.82,1660301185.125
-2.49,1660301185.140625
-3.57,1660301185.15625
-4.96,1660301185.171875
-6.44,1660301185.1875
-7.76,1660301185.203125
-8.78,1660301185.21875
-9.59,1660301185.234375
-10.37,1660301185.25
-11.26,1660301185.265625
-12.2,1660301185.28125
-13.01,1660301185.296875
-13.37,1660301185.3125
-13.06,1660301185.328125
-12.05,1660301185.34375
-10.53,1660301185.359375
-8.88,1660301185.375
-7.47,1660301185.390625
-6.51,1660301185.40625
-5.99,1660301185.421875
-5.74,1660301185.4375
-5.46,1660301185.453125
-4.88,1660301185.46875
-3.84,1660301185.484375
-2.28,1660301185.5
-0.26,1660301185.515625
2.07,1660301185.53125
4.6,1660301185.546875
7.22,1660301185.5625
9.87,1660301185.578125
12.52,1660301185.59375
15.13,1660301185.609375
17.55,1660301185.625
19.54,1660301185.640625
20.74,1660301185.65625
20.74,1660301185.671875
19.21,1660301185.6875
15.99,1660301185.703125
11.29,1660301185.71875
5.83,1660301185.734375
0.84,1660301185.75
-2.28,1660301185.765625
-2.35,1660301185.78125
0.93,1660301185.796875
6.75,1660301185.8125
13.3,1660301185.828125
18.44,1660301185.84375
20.53,1660301185.859375
19.04,1660301185.875
14.75,1660301185.890625
9.22,1660301185.90625
4.16,1660301185.921875
0.76,1660301185.9375
-0.53,1660301185.953125
0.08,1660301185.96875
2.08,1660301185.984375
4.91,1660301186.0
7.99,1660301186.015625
10.79,1660301186.03125
12.73,1660301186.046875
13.3,1660301186.0625
12.2,1660301186.078125
9.48,1660301186.09375
5.63,1660301186.109375
1.48,1660301186.125
-2.03,1660301186.140625
-4.14,1660301186.15625
-4.54,1660301186.171875
-3.41,1660301186.1875
-1.3,1660301186.203125
1.08,1660301186.21875
3.17,1660301186.234375
4.67,1660301186.25
5.57,1660301186.265625
6.02,1660301186.28125
6.19,1660301186.296875
6.24,1660301186.3125
6.26,1660301186.328125
6.33,1660301186.34375
6.56,1660301186.359375
6.97,1660301186.375
7.54,1660301186.390625
8.17,1660301186.40625
8.68,1660301186.421875
8.91,1660301186.4375
8.72,1660301186.453125
8.0,1660301186.46875
6.72,1660301186.484375
4.99,1660301186.5
2.98,1660301186.515625
0.91,1660301186.53125
-0.95,1660301186.546875
-2.44,1660301186.5625
-3.53,1660301186.578125
-4.3,1660301186.59375
-4.92,1660301186.609375
-5.55,1660301186.625
-6.27,1660301186.640625
-7.08,1660301186.65625
-7.97,1660301186.671875
-8.86,1660301186.6875
-9.59,1660301186.703125
-9.97,1660301186.71875
-9.74,1660301186.734375
-8.79,1660301186.75
-7.13,1660301186.765625
-5.02,1660301186.78125
-2.86,1660301186.796875
-1.08,1660301186.8125
0.07,1660301186.828125
0.55,1660301186.84375
0.52,1660301186.859375
0.23,1660301186.875
-0.13,1660301186.890625
-0.42,1660301186.90625
-0.6,1660301186.921875
-0.63,1660301186.9375
-0.49,1660301186.953125
-0.17,1660301186.96875
0.29,1660301186.984375
0.72,1660301187.0
0.91,1660301187.015625
0.68,1660301187.03125
-0.02,1660301187.046875
-1.03,1660301187.0625
-2.06,1660301187.078125
-2.83,1660301187.09375
-3.22,1660301187.109375
-3.32,1660301187.125
-3.4,1660301187.140625
-3.75,1660301187.15625
-4.57,1660301187.171875
-5.83,1660301187.1875
-7.38,1660301187.203125
-9.04,1660301187.21875
-10.72,1660301187.234375
-12.42,1660301187.25
-14.15,1660301187.265625
-15.75,1660301187.28125
-16.92,1660301187.296875
-17.31,1660301187.3125
-16.71,1660301187.328125
-15.14,1660301187.34375
-13.0,1660301187.359375
-10.8,1660301187.375
-9.05,1660301187.390625
-7.96,1660301187.40625
-7.5,1660301187.421875
-7.4,1660301187.4375
-7.39,1660301187.453125
-7.29,1660301187.46875
-7.09,1660301187.484375
-6.86,1660301187.5
-6.61,1660301187.515625
-6.27,1660301187.53125
-5.73,1660301187.546875
-4.87,1660301187.5625
-3.69,1660301187.578125
-2.32,1660301187.59375
-0.99,1660301187.609375
0.07,1660301187.625
0.72,1660301187.640625
0.93,1660301187.65625
0.8,1660301187.671875
0.47,1660301187.6875
0.13,1660301187.703125
-0.11,1660301187.71875
-0.21,1660301187.734375
-0.22,1660301187.75
-0.25,1660301187.765625
-0.41,1660301187.78125
-0.78,1660301187.796875
-1.36,1660301187.8125
-2.18,1660301187.828125
-3.19,1660301187.84375
-4.34,1660301187.859375
-5.49,1660301187.875
-6.38,1660301187.890625
-6.64,1660301187.90625
-5.84,1660301187.921875
-3.73,1660301187.9375
-0.35,1660301187.953125
3.88,1660301187.96875
8.33,1660301187.984375
12.36,1660301188.0
15.58,1660301188.015625
17.94,1660301188.03125
19.66,1660301188.046875
21.12,1660301188.0625
22.59,1660301188.078125
24.16,1660301188.09375
25.75,1660301188.109375
27.13,1660301188.125
28.07,1660301188.140625
28.41,1660301188.15625
28.08,1660301188.171875
27.12,1660301188.1875
25.68,1660301188.203125
23.85,1660301188.21875
21.75,1660301188.234375
19.44,1660301188.25
16.94,1660301188.265625
14.28,1660301188.28125
11.57,1660301188.296875
8.99,1660301188.3125
6.67,1660301188.328125
4.7,1660301188.34375
3.02,1660301188.359375
1.5,1660301188.375
-0.03,1660301188.390625
-1.67,1660301188.40625
-3.35,1660301188.421875
-4.97,1660301188.4375
-6.38,1660301188.453125
-7.54,1660301188.46875
-8.52,1660301188.484375
-9.46,1660301188.5
-10.5,1660301188.515625
-11.66,1660301188.53125
-12.86,1660301188.546875
-13.82,1660301188.5625
-14.27,1660301188.578125
-13.98,1660301188.59375
-12.89,1660301188.609375
-11.14,1660301188.625
-9.03,1660301188.640625
-6.91,1660301188.65625
-5.09,1660301188.671875
-3.69,1660301188.6875
-2.62,1660301188.703125
-1.71,1660301188.71875
-0.77,1660301188.734375
0.24,1660301188.75
1.21,1660301188.765625
1.87,1660301188.78125
2.01,1660301188.796875
1.55,1660301188.8125
0.63,1660301188.828125
-0.46,1660301188.84375
-1.45,1660301188.859375
-2.18,1660301188.875
-2.62,1660301188.890625
-2.89,1660301188.90625
-3.13,1660301188.921875
-3.4,1660301188.9375
-3.67,1660301188.953125
-3.92,1660301188.96875
-4.12,1660301188.984375
-4.29,1660301189.0
-4.46,1660301189.015625
-4.59,1660301189.03125
-4.64,1660301189.046875
-4.57,1660301189.0625
-4.41,1660301189.078125
-4.28,1660301189.09375
-4.33,1660301189.109375
-4.65,1660301189.125
-5.26,1660301189.140625
-6.04,1660301189.15625
-6.81,1660301189.171875
-7.33,1660301189.1875
-7.4,1660301189.203125
-6.89,1660301189.21875
-5.79,1660301189.234375
-4.22,1660301189.25
-2.38,1660301189.265625
-0.52,1660301189.28125
1.06,1660301189.296875
2.21,1660301189.3125
2.8,1660301189.328125
2.86,1660301189.34375
2.47,1660301189.359375
1.8,1660301189.375
1.06,1660301189.390625
0.49,1660301189.40625
0.24,1660301189.421875
0.33,1660301189.4375
0.67,1660301189.453125
1.08,1660301189.46875
1.39,1660301189.484375
1.52,1660301189.5
1.51,1660301189.515625
1.39,1660301189.53125
1.17,1660301189.546875
0.77,1660301189.5625
0.07,1660301189.578125
-0.96,1660301189.59375
-2.29,1660301189.609375
-3.76,1660301189.625
-5.22,1660301189.640625
-6.6,1660301189.65625
-7.96,1660301189.671875
-9.37,1660301189.6875
-10.85,1660301189.703125
-12.3,1660301189.71875
-13.51,1660301189.734375
-14.29,1660301189.75
-14.5,1660301189.765625
-14.14,1660301189.78125
-13.26,1660301189.796875
-11.95,1660301189.8125
-10.28,1660301189.828125
-8.36,1660301189.84375
-6.37,1660301189.859375
-4.59,1660301189.875
-3.29,1660301189.890625
-2.59,1660301189.90625
-2.47,1660301189.921875
-2.6,1660301189.9375
-2.64,1660301189.953125
-2.25,1660301189.96875
-1.37,1660301189.984375
-0.2,1660301190.0
0.88,1660301190.015625
1.54,1660301190.03125
1.65,1660301190.046875
1.45,1660301190.0625
1.39,1660301190.078125
1.96,1660301190.09375
3.5,1660301190.109375
5.96,1660301190.125
8.96,1660301190.140625
11.93,1660301190.15625
14.39,1660301190.171875
16.18,1660301190.1875
17.56,1660301190.203125
19.05,1660301190.21875
21.2,1660301190.234375
24.33,1660301190.25
28.34,1660301190.265625
32.72,1660301190.28125
36.72,1660301190.296875
39.52,1660301190.3125
40.31,1660301190.328125
38.51,1660301190.34375
33.94,1660301190.359375
27.0,1660301190.375
18.89,1660301190.390625
11.38,1660301190.40625
6.25,1660301190.421875
4.6,1660301190.4375
6.26,1660301190.453125
9.77,1660301190.46875
13.05,1660301190.484375
14.28,1660301190.5
12.72,1660301190.515625
8.93,1660301190.53125
4.33,1660301190.546875
0.46,1660301190.5625
-1.68,1660301190.578125
-1.92,1660301190.59375
-0.7,1660301190.609375
1.26,1660301190.625
3.32,1660301190.640625
5.04,1660301190.65625
6.11,1660301190.671875
6.39,1660301190.6875
5.79,1660301190.703125
4.3,1660301190.71875
2.08,1660301190.734375
-0.61,1660301190.75
-3.44,1660301190.765625
-6.07,1660301190.78125
-8.21,1660301190.796875
-9.62,1660301190.8125
-10.26,1660301190.828125
-10.16,1660301190.84375
-9.56,1660301190.859375
-8.79,1660301190.875
-8.21,1660301190.890625
-8.02,1660301190.90625
-8.25,1660301190.921875
-8.75,1660301190.9375
-9.24,1660301190.953125
-9.52,1660301190.96875
-9.56,1660301190.984375
-9.55,1660301191.0
-9.77,1660301191.015625
-10.42,1660301191.03125
-11.5,1660301191.046875
-12.75,1660301191.0625
-13.77,1660301191.078125
-14.2,1660301191.09375
-13.79,1660301191.109375
-12.52,1660301191.125
-10.53,1660301191.140625
-8.05,1660301191.15625
-5.37,1660301191.171875
-2.75,1660301191.1875
-0.46,1660301191.203125
1.33,1660301191.21875
2.51,1660301191.234375
3.1,1660301191.25
3.23,1660301191.265625
3.1,1660301191.28125
2.88,1660301191.296875
2.71,1660301191.3125
2.65,1660301191.328125
2.68,1660301191.34375
2.74,1660301191.359375
2.7,1660301191.375
2.44,1660301191.390625
1.9,1660301191.40625
1.12,1660301191.421875
0.17,1660301191.4375
-0.82,1660301191.453125
-1.77,1660301191.46875
-2.65,1660301191.484375
-3.47,1660301191.5
-4.28,1660301191.515625
-5.06,1660301191.53125
-5.74,1660301191.546875
-6.19,1660301191.5625
-6.32,1660301191.578125
-6.12,1660301191.59375
-5.67,1660301191.609375
-5.16,1660301191.625
-4.79,1660301191.640625
-4.7,1660301191.65625
-4.95,1660301191.671875
-5.47,1660301191.6875
-6.1,1660301191.703125
-6.67,1660301191.71875
-7.0,1660301191.734375
-6.97,1660301191.75
-6.53,1660301191.765625
-5.74,1660301191.78125
-4.72,1660301191.796875
-3.64,1660301191.8125
-2.71,1660301191.828125
-2.13,1660301191.84375
-2.0,1660301191.859375
-2.29,1660301191.875
-2.88,1660301191.890625
-3.59,1660301191.90625
-4.27,1660301191.921875
-4.83,1660301191.9375
-5.29,1660301191.953125
-5.68,1660301191.96875
-6.0,1660301191.984375
-6.23,1660301192.0
-6.27,1660301192.015625
-6.13,1660301192.03125
-5.83,1660301192.046875
-5.51,1660301192.0625
-5.26,1660301192.078125
-5.12,1660301192.09375
-5.03,1660301192.109375
-4.92,1660301192.125
-4.78,1660301192.140625
-4.66,1660301192.15625
-4.65,1660301192.171875
-4.78,1660301192.1875
-5.02,1660301192.203125
-5.25,1660301192.21875
-5.39,1660301192.234375
-5.43,1660301192.25
-5.48,1660301192.265625
-5.77,1660301192.28125
-6.46,1660301192.296875
-7.62,1660301192.3125
-9.12,1660301192.328125
-10.66,1660301192.34375
-11.87,1660301192.359375
-12.3,1660301192.375
-11.64,1660301192.390625
-9.79,1660301192.40625
-6.9,1660301192.421875
-3.43,1660301192.4375
0.01,1660301192.453125
2.82,1660301192.46875
4.63,1660301192.484375
5.44,1660301192.5
5.57,1660301192.515625
5.5,1660301192.53125
5.64,1660301192.546875
6.18,1660301192.5625
7.05,1660301192.578125
8.02,1660301192.59375
8.87,1660301192.609375
9.55,1660301192.625
10.09,1660301192.640625
10.56,1660301192.65625
10.98,1660301192.671875
11.19,1660301192.6875
10.99,1660301192.703125
10.22,1660301192.71875
8.89,1660301192.734375
7.25,1660301192.75
5.61,1660301192.765625
4.3,1660301192.78125
3.41,1660301192.796875
2.81,1660301192.8125
2.16,1660301192.828125
1.06,1660301192.84375
-0.83,1660301192.859375
-3.64,1660301192.875
-7.35,1660301192.890625
-11.78,1660301192.90625
-16.7,1660301192.921875
-21.71,1660301192.9375
-26.26,1660301192.953125
-29.59,1660301192.96875
-30.88,1660301192.984375
-29.49,1660301193.0
-25.16,1660301193.015625
-18.06,1660301193.03125
-8.71,1660301193.046875
2.27,1660301193.0625
14.38,1660301193.078125
27.18,1660301193.09375
40.15,1660301193.109375
52.4,1660301193.125
62.67,1660301193.140625
69.53,1660301193.15625
71.86,1660301193.171875
69.25,1660301193.1875
62.22,1660301193.203125
52.12,1660301193.21875
40.7,1660301193.234375
29.71,1660301193.25
20.42,1660301193.265625
13.47,1660301193.28125
8.84,1660301193.296875
6.04,1660301193.3125
4.41,1660301193.328125
3.34,1660301193.34375
2.43,1660301193.359375
1.52,1660301193.375
0.66,1660301193.390625
0.02,1660301193.40625
-0.23,1660301193.421875
0.05,1660301193.4375
0.89,1660301193.453125
2.12,1660301193.46875
3.39,1660301193.484375
4.19,1660301193.5
3.94,1660301193.515625
2.25,1660301193.53125
-0.89,1660301193.546875
-5.01,1660301193.5625
-9.33,1660301193.578125
-13.0,1660301193.59375
-15.34,1660301193.609375
-16.1,1660301193.625
-15.34,1660301193.640625
-13.44,1660301193.65625
-10.92,1660301193.671875
-8.33,1660301193.6875
-6.17,1660301193.703125
-4.85,1660301193.71875
-4.63,1660301193.734375
-5.49,1660301193.75
-7.19,1660301193.765625
-9.22,1660301193.78125
-11.04,1660301193.796875
-12.27,1660301193.8125
-12.78,1660301193.828125
-12.7,1660301193.84375
-12.34,1660301193.859375
-12.0,1660301193.875
-11.82,1660301193.890625
-11.83,1660301193.90625
-11.9,1660301193.921875
-11.94,1660301193.9375
-11.85,1660301193.953125
-11.6,1660301193.96875
-11.21,1660301193.984375
-10.69,1660301194.0
-10.04,1660301194.015625
-9.25,1660301194.03125
-8.33,1660301194.046875
-7.34,1660301194.0625
-6.46,1660301194.078125
-5.93,1660301194.09375
-5.96,1660301194.109375
-6.65,1660301194.125
-7.86,1660301194.140625
-9.26,1660301194.15625
-10.46,1660301194.171875
-11.22,1660301194.1875
-11.51,1660301194.203125
-11.53,1660301194.21875
-11.52,1660301194.234375
-11.55,1660301194.25
-11.47,1660301194.265625
-10.98,1660301194.28125
-9.82,1660301194.296875
-7.93,1660301194.3125
-5.53,1660301194.328125
-2.96,1660301194.34375
-0.54,1660301194.359375
1.58,1660301194.375
3.4,1660301194.390625
4.93,1660301194.40625
6.16,1660301194.421875
7.02,1660301194.4375
7.42,1660301194.453125
7.4,1660301194.46875
7.11,1660301194.484375
6.75,1660301194.5
6.52,1660301194.515625
6.45,1660301194.53125
6.41,1660301194.546875
6.21,1660301194.5625
5.66,1660301194.578125
4.72,1660301194.59375
3.42,1660301194.609375
1.91,1660301194.625
0.35,1660301194.640625
-1.12,1660301194.65625
-2.28,1660301194.671875
-3.01,1660301194.6875
-3.2,1660301194.703125
-2.95,1660301194.71875
-2.53,1660301194.734375
-2.3,1660301194.75
-2.62,1660301194.765625
-3.64,1660301194.78125
-5.27,1660301194.796875
-7.2,1660301194.8125
-9.13,1660301194.828125
-10.71,1660301194.84375
-11.73,1660301194.859375
-12.04,1660301194.875
-11.48,1660301194.890625
-10.03,1660301194.90625
-7.77,1660301194.921875
-5.0,1660301194.9375
-2.15,1660301194.953125
0.33,1660301194.96875
2.17,1660301194.984375
3.39,1660301195.0
4.19,1660301195.015625
4.93,1660301195.03125
5.85,1660301195.046875
7.07,1660301195.0625
8.44,1660301195.078125
9.71,1660301195.09375
10.58,1660301195.109375
10.85,1660301195.125
10.54,1660301195.140625
9.87,1660301195.15625
9.2,1660301195.171875
8.92,1660301195.1875
9.26,1660301195.203125
10.37,1660301195.21875
12.28,1660301195.234375
15.07,1660301195.25
18.91,1660301195.265625
24.03,1660301195.28125
30.53,1660301195.296875
38.19,1660301195.3125
46.38,1660301195.328125
54.19,1660301195.34375
60.7,1660301195.359375
65.29,1660301195.375
67.67,1660301195.390625
67.81,1660301195.40625
65.56,1660301195.421875
60.56,1660301195.4375
52.46,1660301195.453125
41.47,1660301195.46875
28.77,1660301195.484375
16.37,1660301195.5
6.38,1660301195.515625
-0.05,1660301195.53125
-3.17,1660301195.546875
-4.42,1660301195.5625
-5.48,1660301195.578125
-7.25,1660301195.59375
-9.57,1660301195.609375
-11.63,1660301195.625
-12.88,1660301195.640625
-13.67,1660301195.65625
-15.09,1660301195.671875
-18.23,1660301195.6875
-23.39,1660301195.703125
-29.77,1660301195.71875
-35.95,1660301195.734375
-40.68,1660301195.75
-43.52,1660301195.765625
-44.82,1660301195.78125
-45.3,1660301195.796875
-45.47,1660301195.8125
-45.42,1660301195.828125
-44.87,1660301195.84375
-43.51,1660301195.859375
-41.28,1660301195.875
-38.38,1660301195.890625
-35.22,1660301195.90625
-32.26,1660301195.921875
-29.81,1660301195.9375
-27.91,1660301195.953125
-26.43,1660301195.96875
-25.1,1660301195.984375
-23.65,1660301196.0
-21.95,1660301196.015625
-20.06,1660301196.03125
-18.17,1660301196.046875
-16.5,1660301196.0625
-15.17,1660301196.078125
-14.18,1660301196.09375
-13.36,1660301196.109375
-12.49,1660301196.125
-11.33,1660301196.140625
-9.75,1660301196.15625
-7.74,1660301196.171875
-5.39,1660301196.1875
-2.88,1660301196.203125
-0.42,1660301196.21875
1.82,1660301196.234375
3.75,1660301196.25
5.34,1660301196.265625
6.63,1660301196.28125
7.65,1660301196.296875
8.38,1660301196.3125
8.8,1660301196.328125
8.86,1660301196.34375
8.63,1660301196.359375
8.15,1660301196.375
7.55,1660301196.390625
6.9,1660301196.40625
6.22,1660301196.421875
5.49,1660301196.4375
4.71,1660301196.453125
3.93,1660301196.46875
3.26,1660301196.484375
2.8,1660301196.5
2.58,1660301196.515625
2.53,1660301196.53125
2.54,1660301196.546875
2.52,1660301196.5625
2.35,1660301196.578125
2.06,1660301196.59375
1.69,1660301196.609375
1.33,1660301196.625
1.03,1660301196.640625
0.83,1660301196.65625
0.69,1660301196.671875
0.52,1660301196.6875
0.19,1660301196.703125
-0.42,1660301196.71875
-1.43,1660301196.734375
-2.86,1660301196.75
-4.67,1660301196.765625
-6.6,1660301196.78125
-8.32,1660301196.796875
-9.43,1660301196.8125
-9.67,1660301196.828125
-9.0,1660301196.84375
-7.64,1660301196.859375
-6.0,1660301196.875
-4.45,1660301196.890625
-3.2,1660301196.90625
-2.22,1660301196.921875
-1.3,1660301196.9375
-0.2,1660301196.953125
1.19,1660301196.96875
2.82,1660301196.984375
4.49,1660301197.0
5.94,1660301197.015625
6.93,1660301197.03125
7.34,1660301197.046875
7.14,1660301197.0625
6.48,1660301197.078125
5.56,1660301197.09375
4.65,1660301197.109375
3.93,1660301197.125
3.41,1660301197.140625
2.95,1660301197.15625
2.32,1660301197.171875
1.34,1660301197.1875
-0.09,1660301197.203125
-1.9,1660301197.21875
-3.92,1660301197.234375
-5.96,1660301197.25
-7.85,1660301197.265625
-9.47,1660301197.28125
-10.69,1660301197.296875
-11.37,1660301197.3125
-11.41,1660301197.328125
-10.81,1660301197.34375
-9.75,1660301197.359375
-8.57,1660301197.375
-7.65,1660301197.390625
-7.17,1660301197.40625
-7.1,1660301197.421875
-7.07,1660301197.4375
-6.55,1660301197.453125
-5.04,1660301197.46875
-2.33,1660301197.484375
1.43,1660301197.5
5.71,1660301197.515625
9.7,1660301197.53125
12.54,1660301197.546875
13.52,1660301197.5625
12.47,1660301197.578125
9.85,1660301197.59375
6.81,1660301197.609375
4.88,1660301197.625
5.54,1660301197.640625
9.79,1660301197.65625
17.82,1660301197.671875
28.96,1660301197.6875
41.85,1660301197.703125
54.75,1660301197.71875
65.78,1660301197.734375
73.22,1660301197.75
75.75,1660301197.765625
72.78,1660301197.78125
64.57,1660301197.796875
52.27,1660301197.8125
37.64,1660301197.828125
22.63,1660301197.84375
8.88,1660301197.859375
-2.55,1660301197.875
-11.23,1660301197.890625
-17.26,1660301197.90625
-21.06,1660301197.921875
-23.3,1660301197.9375
-24.66,1660301197.953125
-25.73,1660301197.96875
-26.92,1660301197.984375
-28.42,1660301198.0
-30.21,1660301198.015625
-32.1,1660301198.03125
-33.81,1660301198.046875
-35.07,1660301198.0625
-35.6,1660301198.078125
-35.21,1660301198.09375
-33.84,1660301198.109375
-31.59,1660301198.125
-28.69,1660301198.140625
-25.47,1660301198.15625
-22.17,1660301198.171875
-18.93,1660301198.1875
-15.79,1660301198.203125
-12.72,1660301198.21875
-9.7,1660301198.234375
-6.81,1660301198.25
-4.21,1660301198.265625
-2.06,1660301198.28125
-0.47,1660301198.296875
0.56,1660301198.3125
1.14,1660301198.328125
1.48,1660301198.34375
1.72,1660301198.359375
2.02,1660301198.375
2.39,1660301198.390625
2.77,1660301198.40625
3.08,1660301198.421875
3.18,1660301198.4375
3.05,1660301198.453125
2.72,1660301198.46875
2.25,1660301198.484375
1.76,1660301198.5
1.32,1660301198.515625
0.96,1660301198.53125
0.71,1660301198.546875
0.56,1660301198.5625
0.49,1660301198.578125
0.48,1660301198.59375
0.53,1660301198.609375
0.65,1660301198.625
0.81,1660301198.640625
0.97,1660301198.65625
1.02,1660301198.671875
0.87,1660301198.6875
0.45,1660301198.703125
-0.3,1660301198.71875
-1.34,1660301198.734375
-2.56,1660301198.75
-3.79,1660301198.765625
-4.82,1660301198.78125
-5.41,1660301198.796875
-5.4,1660301198.8125
-4.72,1660301198.828125
-3.38,1660301198.84375
-1.6,1660301198.859375
0.31,1660301198.875
2.02,1660301198.890625
3.26,1660301198.90625
3.89,1660301198.921875
3.99,1660301198.9375
3.68,1660301198.953125
3.19,1660301198.96875
2.63,1660301198.984375
2.04,1660301199.0
1.35,1660301199.015625
0.5,1660301199.03125
-0.5,1660301199.046875
-1.57,1660301199.0625
-2.58,1660301199.078125
-3.39,1660301199.09375
-3.92,1660301199.109375
-4.11,1660301199.125
-4.02,1660301199.140625
-3.75,1660301199.15625
-3.49,1660301199.171875
-3.41,1660301199.1875
-3.66,1660301199.203125
-4.18,1660301199.21875
-4.85,1660301199.234375
-5.42,1660301199.25
-5.66,1660301199.265625
-5.41,1660301199.28125
-4.61,1660301199.296875
-3.3,1660301199.3125
-1.58,1660301199.328125
0.38,1660301199.34375
2.36,1660301199.359375
4.04,1660301199.375
5.1,1660301199.390625
5.35,1660301199.40625
4.79,1660301199.421875
3.8,1660301199.4375
2.93,1660301199.453125
2.74,1660301199.46875
3.6,1660301199.484375
5.54,1660301199.5
8.28,1660301199.515625
11.37,1660301199.53125
14.44,1660301199.546875
17.28,1660301199.5625
19.81,1660301199.578125
22.02,1660301199.59375
23.85,1660301199.609375
25.09,1660301199.625
25.52,1660301199.640625
25.01,1660301199.65625
23.69,1660301199.671875
22.09,1660301199.6875
20.94,1660301199.703125
21.02,1660301199.71875
22.78,1660301199.734375
25.95,1660301199.75
29.48,1660301199.765625
31.77,1660301199.78125
31.28,1660301199.796875
27.29,1660301199.8125
20.39,1660301199.828125
12.46,1660301199.84375
6.13,1660301199.859375
3.88,1660301199.875
7.31,1660301199.890625
16.65,1660301199.90625
30.68,1660301199.921875
46.89,1660301199.9375
62.02,1660301199.953125
72.64,1660301199.96875
75.89,1660301199.984375
70.41,1660301200.0
56.8,1660301200.015625
37.49,1660301200.03125
16.09,1660301200.046875
-3.92,1660301200.0625
-20.05,1660301200.078125
-31.33,1660301200.09375
-38.03,1660301200.109375
-41.05,1660301200.125
-41.33,1660301200.140625
-39.71,1660301200.15625
-37.04,1660301200.171875
-34.19,1660301200.1875
-32.1,1660301200.203125
-31.35,1660301200.21875
-32.0,1660301200.234375
-33.48,1660301200.25
-34.9,1660301200.265625
-35.52,1660301200.28125
-35.08,1660301200.296875
-33.87,1660301200.3125
-32.51,1660301200.328125
-31.53,1660301200.34375
-31.17,1660301200.359375
-31.23,1660301200.375
-31.28,1660301200.390625
-30.76,1660301200.40625
-29.4,1660301200.421875
-27.2,1660301200.4375
-24.42,1660301200.453125
-21.42,1660301200.46875
-18.53,1660301200.484375
-15.93,1660301200.5
-13.63,1660301200.515625
-11.66,1660301200.53125
-9.94,1660301200.546875
-8.46,1660301200.5625
-7.17,1660301200.578125
-5.99,1660301200.59375
-4.78,1660301200.609375
-3.45,1660301200.625
-2.03,1660301200.640625
-0.7,1660301200.65625
0.2,1660301200.671875
0.41,1660301200.6875
-0.23,1660301200.703125
-1.61,1660301200.71875
-3.43,1660301200.734375
-5.3,1660301200.75
-6.84,1660301200.765625
-7.8,1660301200.78125
-8.04,1660301200.796875
-7.53,1660301200.8125
-6.4,1660301200.828125
-4.89,1660301200.84375
-3.32,1660301200.859375
-1.97,1660301200.875
-1.04,1660301200.890625
-0.48,1660301200.90625
-0.09,1660301200.921875
0.36,1660301200.9375
1.0,1660301200.953125
1.76,1660301200.96875
2.5,1660301200.984375
3.01,1660301201.0
3.24,1660301201.015625
3.23,1660301201.03125
3.13,1660301201.046875
2.98,1660301201.0625
2.74,1660301201.078125
2.29,1660301201.09375
1.53,1660301201.109375
0.54,1660301201.125
-0.48,1660301201.140625
-1.23,1660301201.15625
-1.59,1660301201.171875
-1.55,1660301201.1875
-1.36,1660301201.203125
-1.27,1660301201.21875
-1.36,1660301201.234375
-1.62,1660301201.25
-1.84,1660301201.265625
-1.91,1660301201.28125
-1.81,1660301201.296875
-1.71,1660301201.3125
-1.81,1660301201.328125
-2.27,1660301201.34375
-3.07,1660301201.359375
-4.04,1660301201.375
-5.02,1660301201.390625
-5.87,1660301201.40625
-6.56,1660301201.421875
-7.01,1660301201.4375
-7.21,1660301201.453125
-7.04,1660301201.46875
-6.45,1660301201.484375
-5.53,1660301201.5
-4.52,1660301201.515625
-3.74,1660301201.53125
-3.4,1660301201.546875
-3.55,1660301201.5625
-3.95,1660301201.578125
-4.27,1660301201.59375
-4.18,1660301201.609375
-3.58,1660301201.625
-2.62,1660301201.640625
-1.6,1660301201.65625
-0.85,1660301201.671875
-0.52,1660301201.6875
-0.63,1660301201.703125
-1.02,1660301201.71875
-1.52,1660301201.734375
-2.0,1660301201.75
-2.41,1660301201.765625
-2.76,1660301201.78125
-3.14,1660301201.796875
-3.59,1660301201.8125
-4.11,1660301201.828125
-4.66,1660301201.84375
-5.14,1660301201.859375
-5.41,1660301201.875
-5.36,1660301201.890625
-4.96,1660301201.90625
-4.26,1660301201.921875
-3.41,1660301201.9375
-2.62,1660301201.953125
-2.16,1660301201.96875
-2.28,1660301201.984375
-3.11,1660301202.0
-4.6,1660301202.015625
-6.45,1660301202.03125
-8.01,1660301202.046875
-8.54,1660301202.0625
-7.44,1660301202.078125
-4.53,1660301202.09375
-0.29,1660301202.109375
4.34,1660301202.125
8.23,1660301202.140625
10.52,1660301202.15625
10.94,1660301202.171875
9.89,1660301202.1875
8.29,1660301202.203125
7.17,1660301202.21875
7.35,1660301202.234375
9.14,1660301202.25
12.35,1660301202.265625
16.39,1660301202.28125
20.53,1660301202.296875
24.06,1660301202.3125
26.56,1660301202.328125
27.92,1660301202.34375
28.21,1660301202.359375
27.59,1660301202.375
26.13,1660301202.390625
23.82,1660301202.40625
20.71,1660301202.421875
16.95,1660301202.4375
12.94,1660301202.453125
9.12,1660301202.46875
5.91,1660301202.484375
3.42,1660301202.5
1.52,1660301202.515625
-0.13,1660301202.53125
-1.81,1660301202.546875
-3.54,1660301202.5625
-5.14,1660301202.578125
-6.28,1660301202.59375
-6.81,1660301202.609375
-6.84,1660301202.625
-6.71,1660301202.640625
-6.75,1660301202.65625
-7.17,1660301202.671875
-7.97,1660301202.6875
-8.87,1660301202.703125
-9.67,1660301202.71875
-10.27,1660301202.734375
-10.71,1660301202.75
-11.06,1660301202.765625
-11.28,1660301202.78125
-11.13,1660301202.796875
-10.34,1660301202.8125
-8.74,1660301202.828125
-6.38,1660301202.84375
-3.59,1660301202.859375
-0.82,1660301202.875
1.55,1660301202.890625
3.37,1660301202.90625
4.7,1660301202.921875
5.75,1660301202.9375
6.72,1660301202.953125
7.69,1660301202.96875
8.66,1660301202.984375
9.54,1660301203.0
10.26,1660301203.015625
10.74,1660301203.03125
10.9,1660301203.046875
10.76,1660301203.0625
10.27,1660301203.078125
9.57,1660301203.09375
8.76,1660301203.109375
8.0,1660301203.125
7.32,1660301203.140625
6.68,1660301203.15625
5.96,1660301203.171875
5.05,1660301203.1875
3.99,1660301203.203125
2.89,1660301203.21875
1.89,1660301203.234375
1.09,1660301203.25
0.42,1660301203.265625
-0.28,1660301203.28125
-1.18,1660301203.296875
-2.39,1660301203.3125
-3.92,1660301203.328125
-5.67,1660301203.34375
-7.52,1660301203.359375
-9.32,1660301203.375
-10.95,1660301203.390625
-12.26,1660301203.40625
-13.08,1660301203.421875
-13.3,1660301203.4375
-12.87,1660301203.453125
-11.93,1660301203.46875
-10.73,1660301203.484375
-9.58,1660301203.5
-8.68,1660301203.515625
-8.12,1660301203.53125
-7.8,1660301203.546875
-7.52,1660301203.5625
-7.15,1660301203.578125
-6.66,1660301203.59375
-6.12,1660301203.609375
-5.67,1660301203.625
-5.41,1660301203.640625
-5.31,1660301203.65625
-5.28,1660301203.671875
-5.18,1660301203.6875
-4.87,1660301203.703125
-4.28,1660301203.71875
-3.32,1660301203.734375
-1.93,1660301203.75
-0.12,1660301203.765625
2.01,1660301203.78125
4.25,1660301203.796875
6.25,1660301203.8125
7.67,1660301203.828125
8.26,1660301203.84375
7.93,1660301203.859375
6.76,1660301203.875
5.01,1660301203.890625
2.95,1660301203.90625
0.84,1660301203.921875
-1.14,1660301203.9375
-2.87,1660301203.953125
-4.33,1660301203.96875
-5.53,1660301203.984375
-6.54,1660301204.0
-7.5,1660301204.015625
-8.56,1660301204.03125
-9.86,1660301204.046875
-11.37,1660301204.0625
-12.88,1660301204.078125
-13.94,1660301204.09375
-14.01,1660301204.109375
-12.61,1660301204.125
-9.51,1660301204.140625
-4.78,1660301204.15625
1.22,1660301204.171875
8.02,1660301204.1875
15.07,1660301204.203125
21.8,1660301204.21875
27.61,1660301204.234375
31.88,1660301204.25
34.1,1660301204.265625
33.97,1660301204.28125
31.62,1660301204.296875
27.61,1660301204.3125
22.91,1660301204.328125
18.59,1660301204.34375
15.58,1660301204.359375
14.38,1660301204.375
14.97,1660301204.390625
16.86,1660301204.40625
19.31,1660301204.421875
21.53,1660301204.4375
22.9,1660301204.453125
23.08,1660301204.46875
22.03,1660301204.484375
19.89,1660301204.5
16.96,1660301204.515625
13.63,1660301204.53125
10.34,1660301204.546875
7.48,1660301204.5625
5.36,1660301204.578125
4.07,1660301204.59375
3.45,1660301204.609375
3.22,1660301204.625
3.0,1660301204.640625
2.51,1660301204.65625
1.58,1660301204.671875
0.23,1660301204.6875
-1.43,1660301204.703125
-3.16,1660301204.71875
-4.72,1660301204.734375
-5.96,1660301204.75
-6.85,1660301204.765625
-7.54,1660301204.78125
-8.23,1660301204.796875
-9.05,1660301204.8125
-9.93,1660301204.828125
-10.55,1660301204.84375
-10.5,1660301204.859375
-9.47,1660301204.875
-7.4,1660301204.890625
-4.6,1660301204.90625
-1.57,1660301204.921875
1.2,1660301204.9375
3.38,1660301204.953125
4.9,1660301204.96875
5.91,1660301204.984375
6.6,1660301205.0
7.15,1660301205.015625
7.56,1660301205.03125
7.77,1660301205.046875
7.68,1660301205.0625
7.26,1660301205.078125
6.58,1660301205.09375
5.78,1660301205.109375
5.05,1660301205.125
4.5,1660301205.140625
4.07,1660301205.15625
3.65,1660301205.171875
3.08,1660301205.1875
2.33,1660301205.203125
1.51,1660301205.21875
0.82,1660301205.234375
0.47,1660301205.25
0.44,1660301205.265625
0.53,1660301205.28125
0.43,1660301205.296875
-0.13,1660301205.3125
-1.15,1660301205.328125
-2.39,1660301205.34375
-3.48,1660301205.359375
-4.14,1660301205.375
-4.31,1660301205.390625
-4.19,1660301205.40625
-4.11,1660301205.421875
-4.42,1660301205.4375
-5.26,1660301205.453125
-6.58,1660301205.46875
-8.14,1660301205.484375
-9.62,1660301205.5
-10.69,1660301205.515625
-11.1,1660301205.53125
-10.78,1660301205.546875
-9.86,1660301205.5625
-8.62,1660301205.578125
-7.4,1660301205.59375
-6.47,1660301205.609375
-5.91,1660301205.625
-5.63,1660301205.640625
-5.42,1660301205.65625
-5.15,1660301205.671875
-4.84,1660301205.6875
-4.69,1660301205.703125
-4.96,1660301205.71875
-5.8,1660301205.734375
-7.15,1660301205.75
-8.74,1660301205.765625
-10.15,1660301205.78125
-10.95,1660301205.796875
-10.85,1660301205.8125
-9.84,1660301205.828125
-8.09,1660301205.84375
-5.97,1660301205.859375
-3.8,1660301205.875
-1.79,1660301205.890625
0.02,1660301205.90625
1.7,1660301205.921875
3.33,1660301205.9375
4.83,1660301205.953125
5.97,1660301205.96875
6.46,1660301205.984375
6.14,1660301206.0
5.08,1660301206.015625
3.65,1660301206.03125
2.36,1660301206.046875
1.67,1660301206.0625
1.76,1660301206.078125
2.48,1660301206.09375
3.39,1660301206.109375
3.97,1660301206.125
3.78,1660301206.140625
2.67,1660301206.15625
0.84,1660301206.171875
-1.16,1660301206.1875
-2.53,1660301206.203125
-2.46,1660301206.21875
-0.33,1660301206.234375
3.93,1660301206.25
9.73,1660301206.265625
15.72,1660301206.28125
20.16,1660301206.296875
21.54,1660301206.3125
19.12,1660301206.328125
13.36,1660301206.34375
5.8,1660301206.359375
-1.42,1660301206.375
-6.34,1660301206.390625
-7.85,1660301206.40625
-5.97,1660301206.421875
-1.62,1660301206.4375
3.84,1660301206.453125
9.16,1660301206.46875
13.47,1660301206.484375
16.33,1660301206.5
17.61,1660301206.515625
17.32,1660301206.53125
15.6,1660301206.546875
12.73,1660301206.5625
9.22,1660301206.578125
5.71,1660301206.59375
2.82,1660301206.609375
1.02,1660301206.625
0.4,1660301206.640625
0.65,1660301206.65625
1.25,1660301206.671875
1.62,1660301206.6875
1.41,1660301206.703125
0.55,1660301206.71875
-0.72,1660301206.734375
-2.07,1660301206.75
-3.19,1660301206.765625
-3.98,1660301206.78125
-4.49,1660301206.796875
-4.89,1660301206.8125
-5.32,1660301206.828125
-5.85,1660301206.84375
-6.45,1660301206.859375
-7.06,1660301206.875
-7.68,1660301206.890625
-8.3,1660301206.90625
-8.98,1660301206.921875
-9.72,1660301206.9375
-10.5,1660301206.953125
-11.21,1660301206.96875
-11.7,1660301206.984375
-11.77,1660301207.0
-11.27,1660301207.015625
-10.15,1660301207.03125
-8.46,1660301207.046875
-6.36,1660301207.0625
-4.07,1660301207.078125
-1.8,1660301207.09375
0.29,1660301207.109375
2.08,1660301207.125
3.48,1660301207.140625
4.41,1660301207.15625
4.82,1660301207.171875
4.7,1660301207.1875
4.13,1660301207.203125
3.31,1660301207.21875
2.42,1660301207.234375
1.63,1660301207.25
1.06,1660301207.265625
0.73,1660301207.28125
0.58,1660301207.296875
0.52,1660301207.3125
0.46,1660301207.328125
0.36,1660301207.34375
0.2,1660301207.359375
0.04,1660301207.375
-0.12,1660301207.390625
-0.3,1660301207.40625
-0.64,1660301207.421875
-1.3,1660301207.4375
-2.38,1660301207.453125
-3.84,1660301207.46875
-5.48,1660301207.484375
-7.03,1660301207.5
-8.27,1660301207.515625
-9.08,1660301207.53125
-9.49,1660301207.546875
-9.61,1660301207.5625
-9.62,1660301207.578125
-9.67,1660301207.59375
-9.9,1660301207.609375
-10.48,1660301207.625
-11.48,1660301207.640625
-12.88,1660301207.65625
-14.48,1660301207.671875
-15.97,1660301207.6875
-17.04,1660301207.703125
-17.49,1660301207.71875
-17.32,1660301207.734375
-16.66,1660301207.75
-15.7,1660301207.765625
-14.61,1660301207.78125
-13.49,1660301207.796875
-12.41,1660301207.8125
-11.46,1660301207.828125
-10.73,1660301207.84375
-10.24,1660301207.859375
-9.95,1660301207.875
-9.64,1660301207.890625
-9.07,1660301207.90625
-7.99,1660301207.921875
-6.36,1660301207.9375
-4.36,1660301207.953125
-2.31,1660301207.96875
-0.53,1660301207.984375
0.76,1660301208.0
1.56,1660301208.015625
1.93,1660301208.03125
1.94,1660301208.046875
1.67,1660301208.0625
1.17,1660301208.078125
0.62,1660301208.09375
0.35,1660301208.109375
0.73,1660301208.125
2.03,1660301208.140625
4.18,1660301208.15625
6.76,1660301208.171875
9.13,1660301208.1875
10.68,1660301208.203125
11.07,1660301208.21875
10.4,1660301208.234375
9.07,1660301208.25
7.53,1660301208.265625
6.1,1660301208.28125
4.88,1660301208.296875
3.8,1660301208.3125
2.73,1660301208.328125
1.68,1660301208.34375
0.75,1660301208.359375
0.23,1660301208.375
0.39,1660301208.390625
1.4,1660301208.40625
3.22,1660301208.421875
5.61,1660301208.4375
8.24,1660301208.453125
10.74,1660301208.46875
12.85,1660301208.484375
14.4,1660301208.5
15.41,1660301208.515625
15.96,1660301208.53125
16.14,1660301208.546875
16.04,1660301208.5625
15.67,1660301208.578125
15.01,1660301208.59375
14.0,1660301208.609375
12.63,1660301208.625
10.9,1660301208.640625
8.95,1660301208.65625
6.9,1660301208.671875
4.93,1660301208.6875
3.15,1660301208.703125
1.51,1660301208.71875
-0.06,1660301208.734375
-1.67,1660301208.75
-3.28,1660301208.765625
-4.68,1660301208.78125
-5.56,1660301208.796875
-5.62,1660301208.8125
-4.71,1660301208.828125
-2.89,1660301208.84375
-0.46,1660301208.859375
2.18,1660301208.875
4.66,1660301208.890625
6.69,1660301208.90625
8.19,1660301208.921875
9.14,1660301208.9375
9.6,1660301208.953125
9.63,1660301208.96875
9.34,1660301208.984375
8.85,1660301209.0
8.33,1660301209.015625
7.89,1660301209.03125
7.44,1660301209.046875
6.79,1660301209.0625
5.61,1660301209.078125
3.65,1660301209.09375
0.86,1660301209.109375
-2.45,1660301209.125
-5.74,1660301209.140625
-8.35,1660301209.15625
-9.76,1660301209.171875
-9.82,1660301209.1875
-8.76,1660301209.203125
-7.04,1660301209.21875
-5.25,1660301209.234375
-3.8,1660301209.25
-2.91,1660301209.265625
-2.57,1660301209.28125
-2.58,1660301209.296875
-2.7,1660301209.3125
-2.68,1660301209.328125
-2.41,1660301209.34375
-1.88,1660301209.359375
-1.22,1660301209.375
-0.6,1660301209.390625
-0.23,1660301209.40625
-0.18,1660301209.421875
-0.44,1660301209.4375
-0.84,1660301209.453125
-1.26,1660301209.46875
-1.61,1660301209.484375
-1.95,1660301209.5
-2.36,1660301209.515625
-2.82,1660301209.53125
-3.2,1660301209.546875
-3.32,1660301209.5625
-3.11,1660301209.578125
-2.79,1660301209.59375
-2.77,1660301209.609375
-3.44,1660301209.625
-4.91,1660301209.640625
-6.94,1660301209.65625
-8.94,1660301209.671875
-10.38,1660301209.6875
-10.98,1660301209.703125
-10.87,1660301209.71875
-10.45,1660301209.734375
-10.12,1660301209.75
-10.12,1660301209.765625
-10.45,1660301209.78125
-11.01,1660301209.796875
-11.68,1660301209.8125
-12.43,1660301209.828125
-13.24,1660301209.84375
-13.99,1660301209.859375
-14.47,1660301209.875
-14.34,1660301209.890625
-13.34,1660301209.90625
-11.44,1660301209.921875
-8.88,1660301209.9375
-6.13,1660301209.953125
-3.71,1660301209.96875
-1.95,1660301209.984375
-0.99,1660301210.0
-0.64,1660301210.015625
-0.6,1660301210.03125
-0.58,1660301210.046875
-0.43,1660301210.0625
-0.13,1660301210.078125
0.2,1660301210.09375
0.45,1660301210.109375
0.55,1660301210.125
0.51,1660301210.140625
0.36,1660301210.15625
0.2,1660301210.171875
0.02,1660301210.1875
-0.15,1660301210.203125
-0.36,1660301210.21875
-0.71,1660301210.234375
-1.31,1660301210.25
-2.27,1660301210.265625
-3.63,1660301210.28125
-5.32,1660301210.296875
-7.18,1660301210.3125
-9.04,1660301210.328125
-10.72,1660301210.34375
-12.18,1660301210.359375
-13.48,1660301210.375
-14.77,1660301210.390625
-16.24,1660301210.40625
-18.03,1660301210.421875
-20.21,1660301210.4375
-22.72,1660301210.453125
-25.44,1660301210.46875
-28.03,1660301210.484375
-30.0,1660301210.5
-30.75,1660301210.515625
-29.73,1660301210.53125
-26.64,1660301210.546875
-21.62,1660301210.5625
-15.19,1660301210.578125
-8.18,1660301210.59375
-1.4,1660301210.609375
4.53,1660301210.625
9.39,1660301210.640625
13.22,1660301210.65625
16.26,1660301210.671875
18.77,1660301210.6875
20.98,1660301210.703125
23.11,1660301210.71875
25.4,1660301210.734375
28.15,1660301210.75
31.57,1660301210.765625
35.74,1660301210.78125
40.47,1660301210.796875
45.33,1660301210.8125
49.73,1660301210.828125
53.07,1660301210.84375
54.9,1660301210.859375
55.0,1660301210.875
53.41,1660301210.890625
50.34,1660301210.90625
46.08,1660301210.921875
40.93,1660301210.9375
35.15,1660301210.953125
28.99,1660301210.96875
22.79,1660301210.984375
17.08,1660301211.0
12.47,1660301211.015625
9.56,1660301211.03125
8.68,1660301211.046875
9.71,1660301211.0625
12.04,1660301211.078125
14.66,1660301211.09375
16.44,1660301211.109375
16.42,1660301211.125
14.1,1660301211.140625
9.56,1660301211.15625
3.34,1660301211.171875
-3.64,1660301211.1875
-10.37,1660301211.203125
-15.9,1660301211.21875
-19.62,1660301211.234375
-21.31,1660301211.25
-21.14,1660301211.265625
-19.62,1660301211.28125
-17.39,1660301211.296875
-15.04,1660301211.3125
-12.98,1660301211.328125
-11.42,1660301211.34375
-10.37,1660301211.359375
-9.71,1660301211.375
-9.34,1660301211.390625
-9.09,1660301211.40625
-8.87,1660301211.421875
-8.57,1660301211.4375
-8.08,1660301211.453125
-7.38,1660301211.46875
-6.55,1660301211.484375
-5.78,1660301211.5
-5.3,1660301211.515625
-5.26,1660301211.53125
-5.72,1660301211.546875
-6.54,1660301211.5625
-7.51,1660301211.578125
-8.36,1660301211.59375
-8.9,1660301211.609375
-9.09,1660301211.625
-9.03,1660301211.640625
-8.95,1660301211.65625
-9.05,1660301211.671875
-9.43,1660301211.6875
-10.04,1660301211.703125
-10.7,1660301211.71875
-11.16,1660301211.734375
-11.24,1660301211.75
-10.96,1660301211.765625
-10.4,1660301211.78125
-9.84,1660301211.796875
-9.6,1660301211.8125
-9.93,1660301211.828125
-11.0,1660301211.84375
-12.78,1660301211.859375
-15.0,1660301211.875
-17.15,1660301211.890625
-18.62,1660301211.90625
-18.9,1660301211.921875
-17.77,1660301211.9375
-15.37,1660301211.953125
-12.2,1660301211.96875
-8.86,1660301211.984375
-5.86,1660301212.0
-3.42,1660301212.015625
-1.52,1660301212.03125
-0.01,1660301212.046875
1.25,1660301212.0625
2.29,1660301212.078125
3.05,1660301212.09375
3.46,1660301212.109375
3.52,1660301212.125
3.32,1660301212.140625
3.07,1660301212.15625
2.99,1660301212.171875
3.29,1660301212.1875
4.01,1660301212.203125
5.1,1660301212.21875
6.35,1660301212.234375
7.52,1660301212.25
8.42,1660301212.265625
8.96,1660301212.28125
9.22,1660301212.296875
9.3,1660301212.3125
9.34,1660301212.328125
9.34,1660301212.34375
9.28,1660301212.359375
9.05,1660301212.375
8.59,1660301212.390625
7.88,1660301212.40625
6.97,1660301212.421875
5.89,1660301212.4375
4.65,1660301212.453125
3.14,1660301212.46875
1.24,1660301212.484375
-1.11,1660301212.5
-3.93,1660301212.515625
-7.05,1660301212.53125
-10.18,1660301212.546875
-13.02,1660301212.5625
-15.23,1660301212.578125
-16.6,1660301212.59375
-17.04,1660301212.609375
-16.56,1660301212.625
-15.22,1660301212.640625
-13.08,1660301212.65625
-10.07,1660301212.671875
-6.06,1660301212.6875
-0.92,1660301212.703125
5.33,1660301212.71875
12.35,1660301212.734375
19.4,1660301212.75
25.63,1660301212.765625
30.24,1660301212.78125
32.87,1660301212.796875
33.8,1660301212.8125
33.85,1660301212.828125
34.02,1660301212.84375
35.16,1660301212.859375
37.62,1660301212.875
41.1,1660301212.890625
44.78,1660301212.90625
47.5,1660301212.921875
48.07,1660301212.9375
45.47,1660301212.953125
39.18,1660301212.96875
29.4,1660301212.984375
17.15,1660301213.0
4.1,1660301213.015625
-7.83,1660301213.03125
-17.02,1660301213.046875
-22.69,1660301213.0625
-24.99,1660301213.078125
-24.87,1660301213.09375
-23.57,1660301213.109375
-22.17,1660301213.125
-21.28,1660301213.140625
-21.11,1660301213.15625
-21.72,1660301213.171875
-23.19,1660301213.1875
-25.7,1660301213.203125
-29.27,1660301213.21875
-33.61,1660301213.234375
-37.99,1660301213.25
-41.42,1660301213.265625
-43.0,1660301213.28125
-42.31,1660301213.296875
-39.52,1660301213.3125
-35.35,1660301213.328125
-30.71,1660301213.34375
-26.35,1660301213.359375
-22.62,1660301213.375
-19.41,1660301213.390625
-16.42,1660301213.40625
-13.32,1660301213.421875
-10.02,1660301213.4375
-6.59,1660301213.453125
-3.32,1660301213.46875
-0.41,1660301213.484375
2.03,1660301213.5
4.05,1660301213.515625
5.89,1660301213.53125
7.75,1660301213.546875
9.77,1660301213.5625
11.8,1660301213.578125
13.54,1660301213.59375
14.55,1660301213.609375
14.6,1660301213.625
13.71,1660301213.640625
12.22,1660301213.65625
10.69,1660301213.671875
9.53,1660301213.6875
8.94,1660301213.703125
8.72,1660301213.71875
8.61,1660301213.734375
8.3,1660301213.75
7.74,1660301213.765625
7.02,1660301213.78125
6.29,1660301213.796875
5.65,1660301213.8125
5.06,1660301213.828125
4.42,1660301213.84375
3.63,1660301213.859375
2.65,1660301213.875
1.42,1660301213.890625
-0.09,1660301213.90625
-1.97,1660301213.921875
-4.22,1660301213.9375
-6.69,1660301213.953125
-9.05,1660301213.96875
-10.82,1660301213.984375
-11.51,1660301214.0
-10.85,1660301214.015625
-8.91,1660301214.03125
-6.07,1660301214.046875
-2.93,1660301214.0625
-0.04,1660301214.078125
2.26,1660301214.09375
3.9,1660301214.109375
5.04,1660301214.125
5.87,1660301214.140625
6.52,1660301214.15625
6.96,1660301214.171875
7.12,1660301214.1875
7.03,1660301214.203125
6.8,1660301214.21875
6.68,1660301214.234375
6.8,1660301214.25
7.13,1660301214.265625
7.4,1660301214.28125
7.27,1660301214.296875
6.47,1660301214.3125
4.97,1660301214.328125
3.04,1660301214.34375
1.07,1660301214.359375
-0.51,1660301214.375
-1.44,1660301214.390625
-1.76,1660301214.40625
-1.71,1660301214.421875
-1.69,1660301214.4375
-2.04,1660301214.453125
-2.93,1660301214.46875
-4.33,1660301214.484375
-6.03,1660301214.5
-7.8,1660301214.515625
-9.47,1660301214.53125
-11.06,1660301214.546875
-12.71,1660301214.5625
-14.64,1660301214.578125
-16.98,1660301214.59375
-19.79,1660301214.609375
-22.89,1660301214.625
-26.09,1660301214.640625
-29.06,1660301214.65625
-31.34,1660301214.671875
-32.35,1660301214.6875
-31.41,1660301214.703125
-27.97,1660301214.71875
-21.84,1660301214.734375
-13.32,1660301214.75
-3.22,1660301214.765625
7.44,1660301214.78125
17.75,1660301214.796875
27.25,1660301214.8125
35.87,1660301214.828125
43.81,1660301214.84375
51.19,1660301214.859375
57.82,1660301214.875
63.15,1660301214.890625
66.57,1660301214.90625
67.65,1660301214.921875
66.39,1660301214.9375
63.31,1660301214.953125
59.1,1660301214.96875
54.44,1660301214.984375
49.7,1660301215.0
44.91,1660301215.015625
39.95,1660301215.03125
34.68,1660301215.046875
29.13,1660301215.0625
23.37,1660301215.078125
17.38,1660301215.09375
10.85,1660301215.109375
3.41,1660301215.125
-5.05,1660301215.140625
-13.99,1660301215.15625
-22.28,1660301215.171875
-28.52,1660301215.1875
-31.81,1660301215.203125
-32.17,1660301215.21875
-30.57,1660301215.234375
-28.36,1660301215.25
-26.62,1660301215.265625
-25.71,1660301215.28125
-25.42,1660301215.296875
-25.42,1660301215.3125
-25.7,1660301215.328125
-26.61,1660301215.34375
-28.51,1660301215.359375
-31.32,1660301215.375
-34.33,1660301215.390625
-36.4,1660301215.40625
-36.55,1660301215.421875
-34.51,1660301215.4375
-30.74,1660301215.453125
-26.26,1660301215.46875
-22.13,1660301215.484375
-18.95,1660301215.5
-16.75,1660301215.515625
-15.1,1660301215.53125
-13.4,1660301215.546875
-11.26,1660301215.5625
-8.68,1660301215.578125
-6.03,1660301215.59375
-3.8,1660301215.609375
-2.36,1660301215.625
-1.71,1660301215.640625
-1.46,1660301215.65625
-1.05,1660301215.671875
0.02,1660301215.6875
1.92,1660301215.703125
4.45,1660301215.71875
7.19,1660301215.734375
9.73,1660301215.75
11.82,1660301215.765625
13.48,1660301215.78125
14.84,1660301215.796875
16.03,1660301215.8125
17.0,1660301215.828125
17.62,1660301215.84375
17.71,1660301215.859375
17.21,1660301215.875
16.19,1660301215.890625
14.8,1660301215.90625
13.26,1660301215.921875
11.7,1660301215.9375
10.23,1660301215.953125
8.83,1660301215.96875
7.5,1660301215.984375
6.21,1660301216.0
4.92,1660301216.015625
3.61,1660301216.03125
2.25,1660301216.046875
0.84,1660301216.0625
-0.59,1660301216.078125
-1.96,1660301216.09375
-3.11,1660301216.109375
-3.82,1660301216.125
-3.92,1660301216.140625
-3.34,1660301216.15625
-2.08,1660301216.171875
-0.32,1660301216.1875
1.71,1660301216.203125
3.67,1660301216.21875
5.28,1660301216.234375
6.33,1660301216.25
6.71,1660301216.265625
6.39,1660301216.28125
5.46,1660301216.296875
4.07,1660301216.3125
2.42,1660301216.328125
0.72,1660301216.34375
-0.8,1660301216.359375
-1.99,1660301216.375
-2.72,1660301216.390625
-2.96,1660301216.40625
-2.77,1660301216.421875
-2.28,1660301216.4375
-1.71,1660301216.453125
-1.27,1660301216.46875
-1.1,1660301216.484375
-1.21,1660301216.5
-1.51,1660301216.515625
-1.88,1660301216.53125
-2.23,1660301216.546875
-2.58,1660301216.5625
-3.06,1660301216.578125
-3.83,1660301216.59375
-5.08,1660301216.609375
-6.89,1660301216.625
-9.25,1660301216.640625
-12.02,1660301216.65625
-14.93,1660301216.671875
-17.73,1660301216.6875
-20.19,1660301216.703125
-22.2,1660301216.71875
-23.86,1660301216.734375
-25.46,1660301216.75
-27.39,1660301216.765625
-29.99,1660301216.78125
-33.34,1660301216.796875
-37.06,1660301216.8125
-40.29,1660301216.828125
-41.87,1660301216.84375
-40.72,1660301216.859375
-36.27,1660301216.875
-28.75,1660301216.890625
-19.08,1660301216.90625
-8.64,1660301216.921875
1.35,1660301216.9375
10.18,1660301216.953125
17.8,1660301216.96875
24.5,1660301216.984375
30.64,1660301217.0
36.17,1660301217.015625
40.72,1660301217.03125
43.81,1660301217.046875
45.1,1660301217.0625
44.62,1660301217.078125
42.7,1660301217.09375
39.85,1660301217.109375
36.44,1660301217.125
32.73,1660301217.140625
28.86,1660301217.15625
24.94,1660301217.171875
21.12,1660301217.1875
17.54,1660301217.203125
14.26,1660301217.21875
11.27,1660301217.234375
8.54,1660301217.25
6.03,1660301217.265625
3.87,1660301217.28125
2.16,1660301217.296875
0.96,1660301217.3125
0.2,1660301217.328125
-0.26,1660301217.34375
-0.59,1660301217.359375
-0.89,1660301217.375
-1.21,1660301217.390625
-1.56,1660301217.40625
-2.04,1660301217.421875
-2.8,1660301217.4375
-4.05,1660301217.453125
-5.88,1660301217.46875
-8.32,1660301217.484375
-11.22,1660301217.5
-14.35,1660301217.515625
-17.46,1660301217.53125
-20.39,1660301217.546875
-22.94,1660301217.5625
-24.95,1660301217.578125
-26.16,1660301217.59375
-26.27,1660301217.609375
-24.99,1660301217.625
-22.26,1660301217.640625
-18.27,1660301217.65625
-13.55,1660301217.671875
-8.79,1660301217.6875
-4.61,1660301217.703125
-1.35,1660301217.71875
1.0,1660301217.734375
2.73,1660301217.75
4.18,1660301217.765625
5.57,1660301217.78125
6.97,1660301217.796875
8.3,1660301217.8125
9.5,1660301217.828125
10.55,1660301217.84375
11.55,1660301217.859375
12.58,1660301217.875
13.66,1660301217.890625
14.78,1660301217.90625
15.82,1660301217.921875
16.74,1660301217.9375
17.49,1660301217.953125
18.14,1660301217.96875
18.75,1660301217.984375
19.36,1660301218.0
19.95,1660301218.015625
20.43,1660301218.03125
20.61,1660301218.046875
20.32,1660301218.0625
19.48,1660301218.078125
18.05,1660301218.09375
16.15,1660301218.109375
13.97,1660301218.125
11.65,1660301218.140625
9.31,1660301218.15625
6.98,1660301218.171875
4.66,1660301218.1875
2.28,1660301218.203125
-0.24,1660301218.21875
-2.98,1660301218.234375
-5.89,1660301218.25
-8.78,1660301218.265625
-11.25,1660301218.28125
-12.8,1660301218.296875
-13.03,1660301218.3125
-11.81,1660301218.328125
-9.4,1660301218.34375
-6.33,1660301218.359375
-3.27,1660301218.375
-0.73,1660301218.390625
1.04,1660301218.40625
2.04,1660301218.421875
2.47,1660301218.4375
2.59,1660301218.453125
2.63,1660301218.46875
2.75,1660301218.484375
3.04,1660301218.5
3.52,1660301218.515625
4.16,1660301218.53125
4.93,1660301218.546875
5.76,1660301218.5625
6.61,1660301218.578125
7.4,1660301218.59375
8.04,1660301218.609375
8.43,1660301218.625
8.46,1660301218.640625
8.12,1660301218.65625
7.49,1660301218.671875
6.74,1660301218.6875
6.05,1660301218.703125
5.49,1660301218.71875
5.03,1660301218.734375
4.54,1660301218.75
3.92,1660301218.765625
3.12,1660301218.78125
2.18,1660301218.796875
1.17,1660301218.8125
0.15,1660301218.828125
-0.9,1660301218.84375
-2.05,1660301218.859375
-3.32,1660301218.875
-4.78,1660301218.890625
-6.42,1660301218.90625
-8.25,1660301218.921875
-10.27,1660301218.9375
-12.42,1660301218.953125
-14.59,1660301218.96875
-16.52,1660301218.984375
-17.88,1660301219.0
-18.39,1660301219.015625
-17.86,1660301219.03125
-16.37,1660301219.046875
-14.28,1660301219.0625
-12.09,1660301219.078125
-10.25,1660301219.09375
-9.01,1660301219.109375
-8.3,1660301219.125
-7.82,1660301219.140625
-7.26,1660301219.15625
-6.46,1660301219.171875
-5.52,1660301219.1875
-4.65,1660301219.203125
-4.05,1660301219.21875
-3.79,1660301219.234375
-3.78,1660301219.25
-3.82,1660301219.265625
-3.74,1660301219.28125
-3.53,1660301219.296875
-3.22,1660301219.3125
-2.97,1660301219.328125
-2.9,1660301219.34375
-3.11,1660301219.359375
-3.58,1660301219.375
-4.25,1660301219.390625
-4.87,1660301219.40625
-5.24,1660301219.421875
-5.19,1660301219.4375
-4.76,1660301219.453125
-4.17,1660301219.46875
-3.83,1660301219.484375
-3.98,1660301219.5
-4.71,1660301219.515625
-5.84,1660301219.53125
-6.99,1660301219.546875
-7.79,1660301219.5625
-8.03,1660301219.578125
-7.76,1660301219.59375
-7.19,1660301219.609375
-6.69,1660301219.625
-6.54,1660301219.640625
-6.84,1660301219.65625
-7.49,1660301219.671875
-8.15,1660301219.6875
-8.43,1660301219.703125
-7.94,1660301219.71875
-6.51,1660301219.734375
-4.19,1660301219.75
-1.24,1660301219.765625
1.97,1660301219.78125
5.03,1660301219.796875
7.61,1660301219.8125
9.51,1660301219.828125
10.7,1660301219.84375
11.39,1660301219.859375
12.02,1660301219.875
13.09,1660301219.890625
15.02,1660301219.90625
17.93,1660301219.921875
21.52,1660301219.9375
25.16,1660301219.953125
28.18,1660301219.96875
30.03,1660301219.984375
30.55,1660301220.0
29.99,1660301220.015625
28.8,1660301220.03125
27.45,1660301220.046875
26.28,1660301220.0625
25.27,1660301220.078125
24.13,1660301220.09375
22.41,1660301220.109375
19.77,1660301220.125
16.16,1660301220.140625
11.96,1660301220.15625
7.78,1660301220.171875
4.26,1660301220.1875
1.75,1660301220.203125
0.11,1660301220.21875
-1.08,1660301220.234375
-2.3,1660301220.25
-3.78,1660301220.265625
-5.37,1660301220.28125
-6.77,1660301220.296875
-7.79,1660301220.3125
-8.54,1660301220.328125
-9.44,1660301220.34375
-10.96,1660301220.359375
-13.29,1660301220.375
-16.25,1660301220.390625
-19.33,1660301220.40625
-21.93,1660301220.421875
-23.64,1660301220.4375
-24.36,1660301220.453125
-24.13,1660301220.46875
-23.09,1660301220.484375
-21.35,1660301220.5
-18.94,1660301220.515625
-15.95,1660301220.53125
-12.63,1660301220.546875
-9.29,1660301220.5625
-6.28,1660301220.578125
-3.88,1660301220.59375
-2.18,1660301220.609375
-1.21,1660301220.625
-0.85,1660301220.640625
-0.95,1660301220.65625
-1.28,1660301220.671875
-1.58,1660301220.6875
-1.55,1660301220.703125
-0.97,1660301220.71875
0.15,1660301220.734375
1.65,1660301220.75
3.12,1660301220.765625
4.16,1660301220.78125
4.51,1660301220.796875
4.18,1660301220.8125
3.46,1660301220.828125
2.72,1660301220.84375
2.29,1660301220.859375
2.21,1660301220.875
2.28,1660301220.890625
2.13,1660301220.90625
1.45,1660301220.921875
0.16,1660301220.9375
-1.55,1660301220.953125
-3.37,1660301220.96875
-4.98,1660301220.984375
-6.22,1660301221.0
-7.14,1660301221.015625
-7.85,1660301221.03125
-8.44,1660301221.046875
-8.89,1660301221.0625
-9.13,1660301221.078125
-9.21,1660301221.09375
-9.34,1660301221.109375
-9.84,1660301221.125
-10.91,1660301221.140625
-12.42,1660301221.15625
