bvp,time
-59.84,1721466928.53125
-64.13,1721466928.546875
-68.91,1721466928.5625
-74.45,1721466928.578125
-80.81,1721466928.59375
-87.77,1721466928.609375
-94.71,1721466928.625
-100.5,1721466928.640625
-103.8,1721466928.65625
-103.46,1721466928.671875
-99.09,1721466928.6875
-91.17,1721466928.703125
-81.04,1721466928.71875
-70.28,1721466928.734375
-60.15,1721466928.75
-51.25,1721466928.765625
-43.43,1721466928.78125
-36.26,1721466928.796875
-29.28,1721466928.8125
-22.45,1721466928.828125
-15.96,1721466928.84375
-10.14,1721466928.859375
-5.24,1721466928.875
-1.3,1721466928.890625
1.76,1721466928.90625
4.08,1721466928.921875
5.77,1721466928.9375
6.8,1721466928.953125
7.08,1721466928.96875
6.55,1721466928.984375
5.19,1721466929.0
3.2,1721466929.015625
0.93,1721466929.03125
-1.23,1721466929.046875
-2.9,1721466929.0625
-3.95,1721466929.078125
-4.44,1721466929.09375
-4.63,1721466929.109375
-4.8,1721466929.125
-5.13,1721466929.140625
-5.68,1721466929.15625
-6.43,1721466929.171875
-7.39,1721466929.1875
-8.61,1721466929.203125
-10.17,1721466929.21875
-12.14,1721466929.234375
-14.47,1721466929.25
-17.07,1721466929.265625
-19.81,1721466929.28125
-22.6,1721466929.296875
-25.39,1721466929.3125
-28.16,1721466929.328125
-30.91,1721466929.34375
-33.64,1721466929.359375
-36.39,1721466929.375
-39.13,1721466929.390625
-41.83,1721466929.40625
-44.3,1721466929.421875
-46.2,1721466929.4375
-47.14,1721466929.453125
-46.85,1721466929.46875
-45.3,1721466929.484375
-42.75,1721466929.5
-39.68,1721466929.515625
-36.4,1721466929.53125
-32.98,1721466929.546875
-29.12,1721466929.5625
-24.39,1721466929.578125
-18.5,1721466929.59375
-11.55,1721466929.609375
-4.04,1721466929.625
3.32,1721466929.640625
9.93,1721466929.65625
15.67,1721466929.671875
20.98,1721466929.6875
26.84,1721466929.703125
34.51,1721466929.71875
45.2,1721466929.734375
59.72,1721466929.75
78.22,1721466929.765625
100.06,1721466929.78125
123.89,1721466929.796875
147.95,1721466929.8125
170.47,1721466929.828125
190.05,1721466929.84375
205.8,1721466929.859375
217.16,1721466929.875
223.64,1721466929.890625
224.34,1721466929.90625
217.92,1721466929.921875
202.7,1721466929.9375
177.18,1721466929.953125
140.47,1721466929.96875
92.65,1721466929.984375
34.85,1721466930.0
-30.71,1721466930.015625
-100.79,1721466930.03125
-171.43,1721466930.046875
-238.51,1721466930.0625
-298.63,1721466930.078125
-349.97,1721466930.09375
-392.6,1721466930.109375
-428.04,1721466930.125
-458.1,1721466930.140625
-483.75,1721466930.15625
-504.42,1721466930.171875
-518.45,1721466930.1875
-524.09,1721466930.203125
-520.63,1721466930.21875
-508.98,1721466930.234375
-491.27,1721466930.25
-470.04,1721466930.265625
-447.32,1721466930.28125
-424.37,1721466930.296875
-401.82,1721466930.3125
-380.11,1721466930.328125
-359.63,1721466930.34375
-340.61,1721466930.359375
-322.88,1721466930.375
-305.66,1721466930.390625
-287.78,1721466930.40625
-268.11,1721466930.421875
-246.11,1721466930.4375
-222.04,1721466930.453125
-196.91,1721466930.46875
-172.03,1721466930.484375
-148.59,1721466930.5
-127.25,1721466930.515625
-108.11,1721466930.53125
-90.86,1721466930.546875
-75.04,1721466930.5625
-60.25,1721466930.578125
-46.2,1721466930.59375
-32.79,1721466930.609375
-19.97,1721466930.625
-7.7,1721466930.640625
4.0,1721466930.65625
15.11,1721466930.671875
25.54,1721466930.6875
35.22,1721466930.703125
44.04,1721466930.71875
52.08,1721466930.734375
59.53,1721466930.75
66.79,1721466930.765625
74.31,1721466930.78125
82.48,1721466930.796875
91.44,1721466930.8125
101.02,1721466930.828125
110.81,1721466930.84375
120.32,1721466930.859375
129.29,1721466930.875
137.83,1721466930.890625
146.49,1721466930.90625
155.96,1721466930.921875
166.87,1721466930.9375
179.42,1721466930.953125
193.3,1721466930.96875
207.84,1721466930.984375
222.27,1721466931.0
236.09,1721466931.015625
249.26,1721466931.03125
262.16,1721466931.046875
275.46,1721466931.0625
290.0,1721466931.078125
306.77,1721466931.09375
326.66,1721466931.109375
350.11,1721466931.125
376.31,1721466931.140625
402.72,1721466931.15625
425.19,1721466931.171875
438.95,1721466931.1875
440.25,1721466931.203125
427.75,1721466931.21875
403.02,1721466931.234375
369.83,1721466931.25
332.64,1721466931.265625
295.22,1721466931.28125
259.98,1721466931.296875
228.25,1721466931.3125
200.94,1721466931.328125
179.1,1721466931.34375
163.65,1721466931.359375
154.86,1721466931.375
151.76,1721466931.390625
152.18,1721466931.40625
153.44,1721466931.421875
153.27,1721466931.4375
150.59,1721466931.453125
145.52,1721466931.46875
139.12,1721466931.484375
132.56,1721466931.5
126.6,1721466931.515625
121.29,1721466931.53125
116.17,1721466931.546875
110.59,1721466931.5625
104.16,1721466931.578125
96.98,1721466931.59375
89.51,1721466931.609375
82.46,1721466931.625
76.45,1721466931.640625
71.81,1721466931.65625
68.57,1721466931.671875
66.42,1721466931.6875
64.92,1721466931.703125
63.47,1721466931.71875
61.48,1721466931.734375
58.4,1721466931.75
53.92,1721466931.765625
48.05,1721466931.78125
41.12,1721466931.796875
33.67,1721466931.8125
26.23,1721466931.828125
19.09,1721466931.84375
12.28,1721466931.859375
5.62,1721466931.875
-1.0,1721466931.890625
-7.58,1721466931.90625
-13.87,1721466931.921875
-19.62,1721466931.9375
-24.7,1721466931.953125
-29.27,1721466931.96875
-33.64,1721466931.984375
-38.21,1721466932.0
-43.22,1721466932.015625
-48.69,1721466932.03125
-54.43,1721466932.046875
-60.11,1721466932.0625
-65.43,1721466932.078125
-70.18,1721466932.09375
-74.26,1721466932.109375
-77.8,1721466932.125
-81.03,1721466932.140625
-84.16,1721466932.15625
-87.05,1721466932.171875
-89.06,1721466932.1875
-89.04,1721466932.203125
-85.65,1721466932.21875
-77.87,1721466932.234375
-65.54,1721466932.25
-49.49,1721466932.265625
-31.31,1721466932.28125
-12.77,1721466932.296875
4.63,1721466932.3125
20.09,1721466932.328125
33.35,1721466932.34375
44.5,1721466932.359375
53.72,1721466932.375
61.16,1721466932.390625
66.93,1721466932.40625
71.14,1721466932.421875
73.9,1721466932.4375
75.26,1721466932.453125
75.16,1721466932.46875
73.45,1721466932.484375
69.99,1721466932.5
64.84,1721466932.515625
58.3,1721466932.53125
50.93,1721466932.546875
43.5,1721466932.5625
36.78,1721466932.578125
31.31,1721466932.59375
27.31,1721466932.609375
24.51,1721466932.625
22.28,1721466932.640625
19.81,1721466932.65625
16.45,1721466932.671875
11.94,1721466932.6875
6.65,1721466932.703125
1.46,1721466932.71875
-2.44,1721466932.734375
-3.9,1721466932.75
-2.18,1721466932.765625
2.91,1721466932.78125
10.84,1721466932.796875
20.54,1721466932.8125
30.51,1721466932.828125
39.15,1721466932.84375
45.02,1721466932.859375
47.13,1721466932.875
45.16,1721466932.890625
39.56,1721466932.90625
31.47,1721466932.921875
22.4,1721466932.9375
13.75,1721466932.953125
6.42,1721466932.96875
0.58,1721466932.984375
-4.1,1721466933.0
-8.11,1721466933.015625
-11.59,1721466933.03125
-14.22,1721466933.046875
-15.44,1721466933.0625
-14.89,1721466933.078125
-12.77,1721466933.09375
-9.85,1721466933.109375
-7.13,1721466933.125
-5.36,1721466933.140625
-4.76,1721466933.15625
-5.07,1721466933.171875
-5.88,1721466933.1875
-6.97,1721466933.203125
-8.44,1721466933.21875
-10.58,1721466933.234375
-13.54,1721466933.25
-17.12,1721466933.265625
-20.77,1721466933.28125
-23.89,1721466933.296875
-25.99,1721466933.3125
-26.98,1721466933.328125
-27.08,1721466933.34375
-26.69,1721466933.359375
-26.19,1721466933.375
-25.72,1721466933.390625
-25.08,1721466933.40625
-23.79,1721466933.421875
-21.14,1721466933.4375
-16.51,1721466933.453125
-9.68,1721466933.46875
-1.0,1721466933.484375
8.6,1721466933.5
18.01,1721466933.515625
26.37,1721466933.53125
33.48,1721466933.546875
39.82,1721466933.5625
46.14,1721466933.578125
52.94,1721466933.59375
60.12,1721466933.609375
66.94,1721466933.625
72.37,1721466933.640625
75.53,1721466933.65625
75.94,1721466933.671875
73.6,1721466933.6875
68.97,1721466933.703125
62.85,1721466933.71875
56.34,1721466933.734375
50.65,1721466933.75
46.81,1721466933.765625
45.37,1721466933.78125
46.1,1721466933.796875
48.06,1721466933.8125
50.02,1721466933.828125
50.84,1721466933.84375
49.84,1721466933.859375
46.84,1721466933.875
41.96,1721466933.890625
35.25,1721466933.90625
26.71,1721466933.921875
16.43,1721466933.9375
4.76,1721466933.953125
-7.51,1721466933.96875
-19.31,1721466933.984375
-29.66,1721466934.0
-37.92,1721466934.015625
-44.0,1721466934.03125
-48.31,1721466934.046875
-51.39,1721466934.0625
-53.68,1721466934.078125
-55.32,1721466934.09375
-56.22,1721466934.109375
-56.2,1721466934.125
-55.31,1721466934.140625
-53.89,1721466934.15625
-52.52,1721466934.171875
-51.74,1721466934.1875
-51.8,1721466934.203125
-52.59,1721466934.21875
-53.66,1721466934.234375
-54.58,1721466934.25
-55.12,1721466934.265625
-55.34,1721466934.28125
-55.62,1721466934.296875
-56.31,1721466934.3125
-57.63,1721466934.328125
-59.46,1721466934.34375
-61.4,1721466934.359375
-62.8,1721466934.375
-62.96,1721466934.390625
-61.23,1721466934.40625
-57.18,1721466934.421875
-50.72,1721466934.4375
-42.22,1721466934.453125
-32.46,1721466934.46875
-22.49,1721466934.484375
-13.39,1721466934.5
-5.96,1721466934.515625
-0.6,1721466934.53125
2.73,1721466934.546875
4.36,1721466934.5625
4.71,1721466934.578125
4.2,1721466934.59375
3.13,1721466934.609375
1.67,1721466934.625
-0.05,1721466934.640625
-1.95,1721466934.65625
-3.87,1721466934.671875
-5.6,1721466934.6875
-6.91,1721466934.703125
-7.65,1721466934.71875
-7.9,1721466934.734375
-7.96,1721466934.75
-8.22,1721466934.765625
-9.02,1721466934.78125
-10.41,1721466934.796875
-12.18,1721466934.8125
-13.91,1721466934.828125
-15.32,1721466934.84375
-16.29,1721466934.859375
-16.97,1721466934.875
-17.61,1721466934.890625
-18.42,1721466934.90625
-19.52,1721466934.921875
-20.98,1721466934.9375
-22.81,1721466934.953125
-25.11,1721466934.96875
-27.88,1721466934.984375
-30.88,1721466935.0
-33.61,1721466935.015625
-35.31,1721466935.03125
-35.21,1721466935.046875
-32.8,1721466935.0625
-28.04,1721466935.078125
-21.44,1721466935.09375
-13.85,1721466935.109375
-6.22,1721466935.125
0.64,1721466935.140625
6.31,1721466935.15625
10.62,1721466935.171875
13.65,1721466935.1875
15.5,1721466935.203125
16.23,1721466935.21875
15.91,1721466935.234375
14.68,1721466935.25
12.78,1721466935.265625
10.57,1721466935.28125
8.4,1721466935.296875
6.5,1721466935.3125
4.93,1721466935.328125
3.54,1721466935.34375
2.15,1721466935.359375
0.66,1721466935.375
-0.93,1721466935.390625
-2.42,1721466935.40625
-3.66,1721466935.421875
-4.61,1721466935.4375
-5.4,1721466935.453125
-6.3,1721466935.46875
-7.59,1721466935.484375
-9.4,1721466935.5
-11.67,1721466935.515625
-14.19,1721466935.53125
-16.68,1721466935.546875
-18.91,1721466935.5625
-20.78,1721466935.578125
-22.33,1721466935.59375
-23.77,1721466935.609375
-25.42,1721466935.625
-27.57,1721466935.640625
-30.27,1721466935.65625
-33.13,1721466935.671875
-35.37,1721466935.6875
-35.91,1721466935.703125
-33.88,1721466935.71875
-28.94,1721466935.734375
-21.5,1721466935.75
-12.59,1721466935.765625
-3.38,1721466935.78125
5.17,1721466935.796875
12.65,1721466935.8125
19.1,1721466935.828125
24.72,1721466935.84375
29.6,1721466935.859375
33.61,1721466935.875
36.49,1721466935.890625
37.99,1721466935.90625
38.06,1721466935.921875
36.95,1721466935.9375
35.0,1721466935.953125
32.62,1721466935.96875
30.14,1721466935.984375
27.74,1721466936.0
25.45,1721466936.015625
23.14,1721466936.03125
20.61,1721466936.046875
17.65,1721466936.0625
14.12,1721466936.078125
10.03,1721466936.09375
5.54,1721466936.109375
0.91,1721466936.125
-3.57,1721466936.140625
-7.67,1721466936.15625
-11.22,1721466936.171875
-14.19,1721466936.1875
-16.65,1721466936.203125
-18.81,1721466936.21875
-20.93,1721466936.234375
-23.31,1721466936.25
-26.09,1721466936.265625
-29.19,1721466936.28125
-32.26,1721466936.296875
-34.82,1721466936.3125
-36.51,1721466936.328125
-37.26,1721466936.34375
-37.43,1721466936.359375
-37.67,1721466936.375
-38.55,1721466936.390625
-40.31,1721466936.40625
-42.72,1721466936.421875
-45.14,1721466936.4375
-46.78,1721466936.453125
-46.94,1721466936.46875
-45.12,1721466936.484375
-41.08,1721466936.5
-34.82,1721466936.515625
-26.57,1721466936.53125
-16.85,1721466936.546875
-6.48,1721466936.5625
3.52,1721466936.578125
12.12,1721466936.59375
18.58,1721466936.609375
22.54,1721466936.625
24.09,1721466936.640625
23.61,1721466936.65625
21.55,1721466936.671875
18.4,1721466936.6875
14.56,1721466936.703125
10.46,1721466936.71875
6.54,1721466936.734375
3.17,1721466936.75
0.6,1721466936.765625
-1.16,1721466936.78125
-2.3,1721466936.796875
-3.12,1721466936.8125
-3.86,1721466936.828125
-4.64,1721466936.84375
-5.37,1721466936.859375
-5.94,1721466936.875
-6.28,1721466936.890625
-6.39,1721466936.90625
-6.46,1721466936.921875
-6.67,1721466936.9375
-7.21,1721466936.953125
-8.12,1721466936.96875
-9.34,1721466936.984375
-10.65,1721466937.0
-11.81,1721466937.015625
-12.62,1721466937.03125
-13.07,1721466937.046875
-13.35,1721466937.0625
-13.85,1721466937.078125
-14.97,1721466937.09375
-16.96,1721466937.109375
-19.84,1721466937.125
-23.35,1721466937.140625
-27.06,1721466937.15625
-30.5,1721466937.171875
-33.32,1721466937.1875
-35.38,1721466937.203125
-36.72,1721466937.21875
-37.58,1721466937.234375
-38.34,1721466937.25
-39.48,1721466937.265625
-41.52,1721466937.28125
-44.95,1721466937.296875
-50.05,1721466937.3125
-56.75,1721466937.328125
-64.52,1721466937.34375
-72.29,1721466937.359375
-78.68,1721466937.375
-82.32,1721466937.390625
-82.3,1721466937.40625
-78.52,1721466937.421875
-71.76,1721466937.4375
-63.47,1721466937.453125
-55.33,1721466937.46875
-48.86,1721466937.484375
-45.01,1721466937.5
-44.04,1721466937.515625
-45.5,1721466937.53125
-48.45,1721466937.546875
-51.72,1721466937.5625
-54.17,1721466937.578125
-54.97,1721466937.59375
-53.76,1721466937.609375
-50.61,1721466937.625
-45.88,1721466937.640625
-40.04,1721466937.65625
-33.45,1721466937.671875
-26.35,1721466937.6875
-18.86,1721466937.703125
-11.04,1721466937.71875
-2.98,1721466937.734375
5.19,1721466937.75
13.21,1721466937.765625
20.7,1721466937.78125
27.06,1721466937.796875
31.61,1721466937.8125
33.7,1721466937.828125
32.99,1721466937.84375
29.65,1721466937.859375
24.42,1721466937.875
18.51,1721466937.890625
13.48,1721466937.90625
10.85,1721466937.921875
11.76,1721466937.9375
16.67,1721466937.953125
25.09,1721466937.96875
35.65,1721466937.984375
46.5,1721466938.0
55.78,1721466938.015625
62.21,1721466938.03125
65.29,1721466938.046875
65.37,1721466938.0625
63.3,1721466938.078125
60.14,1721466938.09375
56.9,1721466938.109375
54.3,1721466938.125
52.75,1721466938.140625
52.24,1721466938.15625
52.46,1721466938.171875
53.04,1721466938.1875
53.82,1721466938.203125
55.14,1721466938.21875
57.73,1721466938.234375
62.4,1721466938.25
69.51,1721466938.265625
78.6,1721466938.28125
88.42,1721466938.296875
97.43,1721466938.3125
104.32,1721466938.328125
108.46,1721466938.34375
109.96,1721466938.359375
109.34,1721466938.375
107.03,1721466938.390625
103.29,1721466938.40625
98.2,1721466938.421875
92.01,1721466938.4375
85.4,1721466938.453125
79.42,1721466938.46875
75.21,1721466938.484375
73.49,1721466938.5
74.18,1721466938.515625
76.31,1721466938.53125
78.29,1721466938.546875
78.56,1721466938.5625
76.07,1721466938.578125
70.66,1721466938.59375
62.94,1721466938.609375
53.94,1721466938.625
44.61,1721466938.640625
35.49,1721466938.65625
26.54,1721466938.671875
17.36,1721466938.6875
7.4,1721466938.703125
-3.61,1721466938.71875
-15.54,1721466938.734375
-27.73,1721466938.75
-39.3,1721466938.765625
-49.37,1721466938.78125
-57.4,1721466938.796875
-63.39,1721466938.8125
-67.78,1721466938.828125
-71.23,1721466938.84375
-74.36,1721466938.859375
-77.48,1721466938.875
-80.64,1721466938.890625
-83.72,1721466938.90625
-86.61,1721466938.921875
-89.2,1721466938.9375
-91.47,1721466938.953125
-93.38,1721466938.96875
-94.89,1721466938.984375
-96.03,1721466939.0
-96.88,1721466939.015625
-97.47,1721466939.03125
-97.59,1721466939.046875
-96.72,1721466939.0625
-94.0,1721466939.078125
-88.58,1721466939.09375
-80.03,1721466939.109375
-68.68,1721466939.125
-55.68,1721466939.140625
-42.72,1721466939.15625
-31.44,1721466939.171875
-22.92,1721466939.1875
-17.41,1721466939.203125
-14.41,1721466939.21875
-12.99,1721466939.234375
-12.11,1721466939.25
-11.03,1721466939.265625
-9.31,1721466939.28125
-6.93,1721466939.296875
-4.16,1721466939.3125
-1.47,1721466939.328125
0.61,1721466939.34375
1.6,1721466939.359375
1.23,1721466939.375
-0.52,1721466939.390625
-3.37,1721466939.40625
-6.83,1721466939.421875
-10.35,1721466939.4375
-13.41,1721466939.453125
-15.73,1721466939.46875
-17.27,1721466939.484375
-18.32,1721466939.5
-19.39,1721466939.515625
-21.06,1721466939.53125
-23.83,1721466939.546875
-27.9,1721466939.5625
-33.01,1721466939.578125
-38.41,1721466939.59375
-42.99,1721466939.609375
-45.47,1721466939.625
-44.76,1721466939.640625
-40.22,1721466939.65625
-31.9,1721466939.671875
-20.53,1721466939.6875
-7.31,1721466939.703125
6.36,1721466939.71875
19.29,1721466939.734375
30.67,1721466939.75
40.15,1721466939.765625
47.68,1721466939.78125
53.33,1721466939.796875
57.19,1721466939.8125
59.32,1721466939.828125
59.9,1721466939.84375
59.3,1721466939.859375
58.1,1721466939.875
56.92,1721466939.890625
56.15,1721466939.90625
55.81,1721466939.921875
55.47,1721466939.9375
54.49,1721466939.953125
52.29,1721466939.96875
48.64,1721466939.984375
43.85,1721466940.0
38.58,1721466940.015625
33.58,1721466940.03125
29.32,1721466940.046875
25.85,1721466940.0625
22.74,1721466940.078125
19.4,1721466940.09375
15.3,1721466940.109375
10.25,1721466940.125
4.44,1721466940.140625
-1.68,1721466940.15625
-7.58,1721466940.171875
-12.84,1721466940.1875
-17.31,1721466940.203125
-21.06,1721466940.21875
-24.38,1721466940.234375
-27.7,1721466940.25
-31.5,1721466940.265625
-36.1,1721466940.28125
-41.47,1721466940.296875
-47.1,1721466940.3125
-52.0,1721466940.328125
-54.91,1721466940.34375
-54.74,1721466940.359375
-50.91,1721466940.375
-43.56,1721466940.390625
-33.5,1721466940.40625
-21.86,1721466940.421875
-9.77,1721466940.4375
1.9,1721466940.453125
12.53,1721466940.46875
21.79,1721466940.484375
29.43,1721466940.5
35.31,1721466940.515625
39.39,1721466940.53125
41.76,1721466940.546875
42.69,1721466940.5625
42.58,1721466940.578125
41.87,1721466940.59375
40.93,1721466940.609375
40.01,1721466940.625
39.22,1721466940.640625
38.54,1721466940.65625
37.92,1721466940.671875
37.35,1721466940.6875
36.91,1721466940.703125
36.72,1721466940.71875
36.97,1721466940.734375
37.71,1721466940.75
38.8,1721466940.765625
39.95,1721466940.78125
40.76,1721466940.796875
40.87,1721466940.8125
40.13,1721466940.828125
38.59,1721466940.84375
36.43,1721466940.859375
33.92,1721466940.875
31.29,1721466940.890625
28.64,1721466940.90625
25.92,1721466940.921875
23.05,1721466940.9375
19.93,1721466940.953125
16.5,1721466940.96875
12.79,1721466940.984375
8.9,1721466941.0
4.95,1721466941.015625
1.09,1721466941.03125
-2.56,1721466941.046875
-5.91,1721466941.0625
-9.0,1721466941.078125
-11.98,1721466941.09375
-15.13,1721466941.109375
-18.73,1721466941.125
-22.91,1721466941.140625
-27.5,1721466941.15625
-31.98,1721466941.171875
-35.53,1721466941.1875
-37.34,1721466941.203125
-36.92,1721466941.21875
-34.26,1721466941.234375
-29.84,1721466941.25
-24.43,1721466941.265625
-18.75,1721466941.28125
-13.3,1721466941.296875
-8.24,1721466941.3125
-3.55,1721466941.328125
0.73,1721466941.34375
4.36,1721466941.359375
6.87,1721466941.375
7.71,1721466941.390625
6.6,1721466941.40625
3.69,1721466941.421875
-0.38,1721466941.4375
-4.67,1721466941.453125
-8.2,1721466941.46875
-10.39,1721466941.484375
-11.12,1721466941.5
-10.82,1721466941.515625
-10.21,1721466941.53125
-9.91,1721466941.546875
-10.29,1721466941.5625
-11.23,1721466941.578125
-12.31,1721466941.59375
-13.02,1721466941.609375
-12.99,1721466941.625
-12.09,1721466941.640625
-10.44,1721466941.65625
-8.28,1721466941.671875
-5.92,1721466941.6875
-3.62,1721466941.703125
-1.6,1721466941.71875
-0.04,1721466941.734375
0.95,1721466941.75
1.33,1721466941.765625
1.11,1721466941.78125
0.36,1721466941.796875
-0.81,1721466941.8125
-2.31,1721466941.828125
-4.02,1721466941.84375
-5.85,1721466941.859375
-7.72,1721466941.875
-9.57,1721466941.890625
-11.45,1721466941.90625
-13.44,1721466941.921875
-15.62,1721466941.9375
-18.01,1721466941.953125
-20.52,1721466941.96875
-22.99,1721466941.984375
-25.34,1721466942.0
-27.61,1721466942.015625
-29.95,1721466942.03125
-32.52,1721466942.046875
-35.26,1721466942.0625
-37.79,1721466942.078125
-39.4,1721466942.09375
-39.26,1721466942.109375
-36.77,1721466942.125
-31.83,1721466942.140625
-24.91,1721466942.15625
-16.93,1721466942.171875
-8.87,1721466942.1875
-1.49,1721466942.203125
4.9,1721466942.21875
10.31,1721466942.234375
14.84,1721466942.25
18.49,1721466942.265625
21.06,1721466942.28125
22.36,1721466942.296875
22.36,1721466942.3125
21.32,1721466942.328125
19.8,1721466942.34375
18.37,1721466942.359375
17.4,1721466942.375
16.92,1721466942.390625
16.71,1721466942.40625
16.44,1721466942.421875
15.95,1721466942.4375
15.28,1721466942.453125
14.65,1721466942.46875
14.24,1721466942.484375
14.04,1721466942.5
13.85,1721466942.515625
13.36,1721466942.53125
12.33,1721466942.546875
10.66,1721466942.5625
8.49,1721466942.578125
6.06,1721466942.59375
3.64,1721466942.609375
1.36,1721466942.625
-0.78,1721466942.640625
-2.85,1721466942.65625
-4.97,1721466942.671875
-7.13,1721466942.6875
-9.26,1721466942.703125
-11.26,1721466942.71875
-13.03,1721466942.734375
-14.58,1721466942.75
-16.03,1721466942.765625
-17.56,1721466942.78125
-19.39,1721466942.796875
-21.63,1721466942.8125
-24.25,1721466942.828125
-27.03,1721466942.84375
-29.64,1721466942.859375
-31.57,1721466942.875
-32.35,1721466942.890625
-31.54,1721466942.90625
-28.87,1721466942.921875
-24.26,1721466942.9375
-17.86,1721466942.953125
-10.01,1721466942.96875
-1.2,1721466942.984375
7.96,1721466943.0
16.84,1721466943.015625
24.84,1721466943.03125
31.51,1721466943.046875
36.61,1721466943.0625
40.1,1721466943.078125
42.04,1721466943.09375
42.62,1721466943.109375
42.05,1721466943.125
40.62,1721466943.140625
38.79,1721466943.15625
37.12,1721466943.171875
36.25,1721466943.1875
36.64,1721466943.203125
38.37,1721466943.21875
41.05,1721466943.234375
43.92,1721466943.25
46.15,1721466943.265625
47.05,1721466943.28125
46.4,1721466943.296875
44.27,1721466943.3125
40.94,1721466943.328125
36.67,1721466943.34375
31.58,1721466943.359375
25.74,1721466943.375
19.3,1721466943.390625
12.58,1721466943.40625
6.02,1721466943.421875
-0.05,1721466943.4375
-5.63,1721466943.453125
-11.08,1721466943.46875
-16.91,1721466943.484375
-23.44,1721466943.5
-30.49,1721466943.515625
-37.31,1721466943.53125
-42.92,1721466943.546875
-46.51,1721466943.5625
-47.8,1721466943.578125
-47.21,1721466943.59375
-45.57,1721466943.609375
-43.88,1721466943.625
-42.87,1721466943.640625
-42.89,1721466943.65625
-43.91,1721466943.671875
-45.55,1721466943.6875
-47.25,1721466943.703125
-48.29,1721466943.71875
-47.95,1721466943.734375
-45.67,1721466943.75
-41.23,1721466943.765625
-34.89,1721466943.78125
-27.33,1721466943.796875
-19.5,1721466943.8125
-12.26,1721466943.828125
-6.16,1721466943.84375
-1.39,1721466943.859375
2.17,1721466943.875
4.74,1721466943.890625
6.47,1721466943.90625
7.44,1721466943.921875
7.68,1721466943.9375
7.26,1721466943.953125
6.34,1721466943.96875
5.16,1721466943.984375
3.99,1721466944.0
3.08,1721466944.015625
2.59,1721466944.03125
2.65,1721466944.046875
3.29,1721466944.0625
4.45,1721466944.078125
6.02,1721466944.09375
7.8,1721466944.109375
9.56,1721466944.125
11.04,1721466944.140625
12.08,1721466944.15625
12.54,1721466944.171875
12.38,1721466944.1875
11.7,1721466944.203125
10.7,1721466944.21875
9.57,1721466944.234375
8.55,1721466944.25
7.74,1721466944.265625
7.12,1721466944.28125
6.54,1721466944.296875
5.74,1721466944.3125
4.42,1721466944.328125
2.41,1721466944.34375
-0.35,1721466944.359375
-3.65,1721466944.375
-7.16,1721466944.390625
-10.46,1721466944.40625
-13.23,1721466944.421875
-15.37,1721466944.4375
-17.07,1721466944.453125
-18.72,1721466944.46875
-20.72,1721466944.484375
-23.24,1721466944.5
-26.1,1721466944.515625
-28.71,1721466944.53125
-30.24,1721466944.546875
-29.85,1721466944.5625
-27.03,1721466944.578125
-21.76,1721466944.59375
-14.6,1721466944.609375
-6.54,1721466944.625
1.34,1721466944.640625
8.15,1721466944.65625
13.48,1721466944.671875
17.36,1721466944.6875
20.09,1721466944.703125
21.98,1721466944.71875
23.12,1721466944.734375
23.42,1721466944.75
22.76,1721466944.765625
21.2,1721466944.78125
19.05,1721466944.796875
16.85,1721466944.8125
15.09,1721466944.828125
14.03,1721466944.84375
13.61,1721466944.859375
13.53,1721466944.875
13.53,1721466944.890625
13.41,1721466944.90625
13.24,1721466944.921875
13.14,1721466944.9375
13.24,1721466944.953125
13.53,1721466944.96875
13.87,1721466944.984375
14.07,1721466945.0
13.94,1721466945.015625
13.37,1721466945.03125
12.3,1721466945.046875
10.74,1721466945.0625
8.75,1721466945.078125
6.45,1721466945.09375
4.0,1721466945.109375
1.55,1721466945.125
-0.74,1721466945.140625
-2.76,1721466945.15625
-4.44,1721466945.171875
-5.69,1721466945.1875
-6.41,1721466945.203125
-6.52,1721466945.21875
-6.08,1721466945.234375
-5.3,1721466945.25
-4.55,1721466945.265625
-4.16,1721466945.28125
-4.22,1721466945.296875
-4.46,1721466945.3125
-4.33,1721466945.328125
-3.21,1721466945.34375
-0.7,1721466945.359375
3.16,1721466945.375
7.95,1721466945.390625
13.08,1721466945.40625
18.04,1721466945.421875
22.54,1721466945.4375
26.45,1721466945.453125
29.66,1721466945.46875
31.9,1721466945.484375
32.61,1721466945.5
31.16,1721466945.515625
27.05,1721466945.53125
20.27,1721466945.546875
11.38,1721466945.5625
1.54,1721466945.578125
-7.9,1721466945.59375
-15.76,1721466945.609375
-21.4,1721466945.625
-24.8,1721466945.640625
-26.41,1721466945.65625
-26.79,1721466945.671875
-26.3,1721466945.6875
-24.98,1721466945.703125
-22.8,1721466945.71875
-19.84,1721466945.734375
-16.54,1721466945.75
-13.6,1721466945.765625
-11.77,1721466945.78125
-11.47,1721466945.796875
-12.66,1721466945.8125
-14.94,1721466945.828125
-17.75,1721466945.84375
-20.63,1721466945.859375
-23.38,1721466945.875
-25.95,1721466945.890625
-28.38,1721466945.90625
-30.65,1721466945.921875
-32.72,1721466945.9375
-34.56,1721466945.953125
-36.34,1721466945.96875
-38.31,1721466945.984375
-40.76,1721466946.0
-43.8,1721466946.015625
-47.15,1721466946.03125
-50.13,1721466946.046875
-51.79,1721466946.0625
-51.22,1721466946.078125
-47.86,1721466946.09375
-41.71,1721466946.109375
-33.28,1721466946.125
-23.41,1721466946.140625
-12.99,1721466946.15625
-2.75,1721466946.171875
6.77,1721466946.1875
15.19,1721466946.203125
22.2,1721466946.21875
27.53,1721466946.234375
30.97,1721466946.25
32.56,1721466946.265625
32.53,1721466946.28125
31.28,1721466946.296875
29.29,1721466946.3125
27.01,1721466946.328125
24.79,1721466946.34375
22.81,1721466946.359375
21.17,1721466946.375
19.77,1721466946.390625
18.51,1721466946.40625
17.21,1721466946.421875
15.78,1721466946.4375
14.28,1721466946.453125
12.83,1721466946.46875
11.58,1721466946.484375
10.54,1721466946.5
9.54,1721466946.515625
8.29,1721466946.53125
6.52,1721466946.546875
4.09,1721466946.5625
1.12,1721466946.578125
-2.09,1721466946.59375
-5.2,1721466946.609375
-8.04,1721466946.625
-10.61,1721466946.640625
-13.13,1721466946.65625
-15.84,1721466946.671875
-18.89,1721466946.6875
-22.27,1721466946.703125
-25.87,1721466946.71875
-29.49,1721466946.734375
-32.85,1721466946.75
-35.57,1721466946.765625
-37.07,1721466946.78125
-36.71,1721466946.796875
-33.88,1721466946.8125
-28.31,1721466946.828125
-20.29,1721466946.84375
-10.6,1721466946.859375
-0.32,1721466946.875
9.47,1721466946.890625
18.05,1721466946.90625
25.06,1721466946.921875
30.47,1721466946.9375
34.37,1721466946.953125
36.78,1721466946.96875
37.7,1721466946.984375
37.18,1721466947.0
35.49,1721466947.015625
33.05,1721466947.03125
30.35,1721466947.046875
27.82,1721466947.0625
25.67,1721466947.078125
23.91,1721466947.09375
22.4,1721466947.109375
21.04,1721466947.125
19.86,1721466947.140625
18.99,1721466947.15625
18.59,1721466947.171875
18.69,1721466947.1875
19.11,1721466947.203125
19.41,1721466947.21875
19.08,1721466947.234375
17.71,1721466947.25
15.16,1721466947.265625
11.68,1721466947.28125
7.72,1721466947.296875
3.76,1721466947.3125
0.08,1721466947.328125
-3.31,1721466947.34375
-6.61,1721466947.359375
-10.09,1721466947.375
-13.99,1721466947.390625
-18.41,1721466947.40625
-23.27,1721466947.421875
-28.22,1721466947.4375
-32.57,1721466947.453125
-35.33,1721466947.46875
-35.46,1721466947.484375
-32.28,1721466947.5
-25.74,1721466947.515625
-16.61,1721466947.53125
-6.2,1721466947.546875
4.08,1721466947.5625
13.14,1721466947.578125
20.49,1721466947.59375
26.16,1721466947.609375
30.37,1721466947.625
33.35,1721466947.640625
35.16,1721466947.65625
35.75,1721466947.671875
35.16,1721466947.6875
33.56,1721466947.703125
31.27,1721466947.71875
28.66,1721466947.734375
26.1,1721466947.75
23.77,1721466947.765625
21.71,1721466947.78125
19.74,1721466947.796875
17.62,1721466947.8125
15.09,1721466947.828125
12.05,1721466947.84375
8.64,1721466947.859375
5.19,1721466947.875
2.13,1721466947.890625
-0.25,1721466947.90625
-1.88,1721466947.921875
-3.04,1721466947.9375
-4.16,1721466947.953125
-5.74,1721466947.96875
-8.1,1721466947.984375
-11.3,1721466948.0
-15.14,1721466948.015625
-19.26,1721466948.03125
-23.3,1721466948.046875
-26.98,1721466948.0625
-30.13,1721466948.078125
-32.79,1721466948.09375
-35.05,1721466948.109375
-37.2,1721466948.125
-39.61,1721466948.140625
-42.64,1721466948.15625
-46.41,1721466948.171875
-50.61,1721466948.1875
-54.32,1721466948.203125
-56.19,1721466948.21875
-54.91,1721466948.234375
-49.67,1721466948.25
-40.63,1721466948.265625
-28.84,1721466948.28125
-15.92,1721466948.296875
-3.4,1721466948.3125
7.67,1721466948.328125
16.92,1721466948.34375
24.47,1721466948.359375
30.53,1721466948.375
35.26,1721466948.390625
38.63,1721466948.40625
40.63,1721466948.421875
41.32,1721466948.4375
40.94,1721466948.453125
39.82,1721466948.46875
38.29,1721466948.484375
36.6,1721466948.5
34.88,1721466948.515625
33.2,1721466948.53125
31.56,1721466948.546875
29.95,1721466948.5625
28.34,1721466948.578125
26.71,1721466948.59375
25.07,1721466948.609375
23.47,1721466948.625
21.91,1721466948.640625
20.3,1721466948.65625
18.46,1721466948.671875
16.17,1721466948.6875
13.24,1721466948.703125
9.63,1721466948.71875
5.44,1721466948.734375
0.9,1721466948.75
-3.7,1721466948.765625
-8.12,1721466948.78125
-12.21,1721466948.796875
-15.9,1721466948.8125
-19.24,1721466948.828125
-22.37,1721466948.84375
-25.5,1721466948.859375
-28.91,1721466948.875
-32.93,1721466948.890625
-37.8,1721466948.90625
-43.57,1721466948.921875
-49.9,1721466948.9375
-56.03,1721466948.953125
-60.8,1721466948.96875
-62.95,1721466948.984375
-61.48,1721466949.0
-56.05,1721466949.015625
-47.03,1721466949.03125
-35.45,1721466949.046875
-22.67,1721466949.0625
-9.96,1721466949.078125
1.74,1721466949.09375
11.85,1721466949.109375
20.09,1721466949.125
26.37,1721466949.140625
30.71,1721466949.15625
33.25,1721466949.171875
34.32,1721466949.1875
34.47,1721466949.203125
34.24,1721466949.21875
34.02,1721466949.234375
33.93,1721466949.25
33.79,1721466949.265625
33.33,1721466949.28125
32.41,1721466949.296875
31.25,1721466949.3125
30.38,1721466949.328125
30.37,1721466949.34375
31.5,1721466949.359375
33.52,1721466949.375
35.7,1721466949.390625
37.11,1721466949.40625
37.06,1721466949.421875
35.44,1721466949.4375
32.69,1721466949.453125
29.62,1721466949.46875
26.97,1721466949.484375
25.09,1721466949.5
23.82,1721466949.515625
22.62,1721466949.53125
20.84,1721466949.546875
18.07,1721466949.5625
14.27,1721466949.578125
9.83,1721466949.59375
5.4,1721466949.609375
1.72,1721466949.625
-0.66,1721466949.640625
-1.58,1721466949.65625
-1.48,1721466949.671875
-1.48,1721466949.6875
-3.2,1721466949.703125
-8.39,1721466949.71875
-18.24,1721466949.734375
-32.68,1721466949.75
-49.99,1721466949.765625
-67.01,1721466949.78125
-79.96,1721466949.796875
-85.7,1721466949.8125
-82.77,1721466949.828125
-71.84,1721466949.84375
-55.4,1721466949.859375
-36.75,1721466949.875
-18.87,1721466949.890625
-3.73,1721466949.90625
7.96,1721466949.921875
16.39,1721466949.9375
22.11,1721466949.953125
25.59,1721466949.96875
27.16,1721466949.984375
27.17,1721466950.0
26.12,1721466950.015625
24.75,1721466950.03125
23.81,1721466950.046875
23.79,1721466950.0625
24.64,1721466950.078125
25.85,1721466950.09375
26.68,1721466950.109375
26.64,1721466950.125
25.74,1721466950.140625
24.5,1721466950.15625
23.69,1721466950.171875
23.9,1721466950.1875
25.26,1721466950.203125
27.4,1721466950.21875
29.6,1721466950.234375
31.09,1721466950.25
31.32,1721466950.265625
30.08,1721466950.28125
27.53,1721466950.296875
24.11,1721466950.3125
20.4,1721466950.328125
16.92,1721466950.34375
13.87,1721466950.359375
11.11,1721466950.375
8.18,1721466950.390625
4.54,1721466950.40625
-0.14,1721466950.421875
-5.84,1721466950.4375
-12.13,1721466950.453125
-18.42,1721466950.46875
-24.15,1721466950.484375
-29.06,1721466950.5
-33.27,1721466950.515625
-37.18,1721466950.53125
-41.3,1721466950.546875
-45.98,1721466950.5625
-51.24,1721466950.578125
-56.6,1721466950.59375
-61.24,1721466950.609375
-64.13,1721466950.625
-64.34,1721466950.640625
-61.3,1721466950.65625
-54.98,1721466950.671875
-45.86,1721466950.6875
-34.83,1721466950.703125
-22.92,1721466950.71875
-11.11,1721466950.734375
-0.26,1721466950.75
9.09,1721466950.765625
16.58,1721466950.78125
22.07,1721466950.796875
25.57,1721466950.8125
27.19,1721466950.828125
27.17,1721466950.84375
25.89,1721466950.859375
23.81,1721466950.875
21.44,1721466950.890625
19.28,1721466950.90625
17.71,1721466950.921875
16.91,1721466950.9375
16.9,1721466950.953125
17.46,1721466950.96875
18.27,1721466950.984375
18.98,1721466951.0
19.35,1721466951.015625
19.34,1721466951.03125
19.07,1721466951.046875
18.79,1721466951.0625
18.63,1721466951.078125
18.54,1721466951.09375
18.23,1721466951.109375
17.3,1721466951.125
15.44,1721466951.140625
12.57,1721466951.15625
8.96,1721466951.171875
5.13,1721466951.1875
1.6,1721466951.203125
-1.26,1721466951.21875
-3.39,1721466951.234375
-5.04,1721466951.25
-6.58,1721466951.265625
-8.42,1721466951.28125
-10.87,1721466951.296875
-14.08,1721466951.3125
-17.99,1721466951.328125
-22.3,1721466951.34375
-26.36,1721466951.359375
-29.21,1721466951.375
-29.7,1721466951.390625
-26.84,1721466951.40625
-20.16,1721466951.421875
-10.05,1721466951.4375
2.28,1721466951.453125
15.12,1721466951.46875
26.75,1721466951.484375
35.99,1721466951.5
42.45,1721466951.515625
46.41,1721466951.53125
48.54,1721466951.546875
49.39,1721466951.5625
49.2,1721466951.578125
47.88,1721466951.59375
45.15,1721466951.609375
40.89,1721466951.625
35.31,1721466951.640625
28.97,1721466951.65625
22.67,1721466951.671875
17.15,1721466951.6875
12.88,1721466951.703125
9.93,1721466951.71875
8.04,1721466951.734375
6.71,1721466951.75
5.42,1721466951.765625
3.75,1721466951.78125
1.41,1721466951.796875
-1.72,1721466951.8125
-5.63,1721466951.828125
-10.2,1721466951.84375
-15.22,1721466951.859375
-20.4,1721466951.875
-25.44,1721466951.890625
-30.09,1721466951.90625
-34.26,1721466951.921875
-37.97,1721466951.9375
-41.31,1721466951.953125
-44.42,1721466951.96875
-47.45,1721466951.984375
-50.53,1721466952.0
-53.83,1721466952.015625
-57.47,1721466952.03125
-61.48,1721466952.046875
-65.73,1721466952.0625
-69.95,1721466952.078125
-73.81,1721466952.09375
-77.13,1721466952.109375
-80.01,1721466952.125
-82.8,1721466952.140625
-85.91,1721466952.15625
-89.43,1721466952.171875
-92.89,1721466952.1875
-95.22,1721466952.203125
-94.97,1721466952.21875
-90.95,1721466952.234375
-82.66,1721466952.25
-70.5,1721466952.265625
-55.72,1721466952.28125
-39.86,1721466952.296875
-24.32,1721466952.3125
-9.94,1721466952.328125
2.95,1721466952.34375
14.35,1721466952.359375
24.34,1721466952.375
32.89,1721466952.390625
39.86,1721466952.40625
45.17,1721466952.421875
48.92,1721466952.4375
51.41,1721466952.453125
53.01,1721466952.46875
54.04,1721466952.484375
54.67,1721466952.5
54.92,1721466952.515625
54.8,1721466952.53125
54.36,1721466952.546875
53.74,1721466952.5625
53.1,1721466952.578125
52.53,1721466952.59375
51.98,1721466952.609375
51.27,1721466952.625
50.18,1721466952.640625
48.53,1721466952.65625
46.21,1721466952.671875
43.24,1721466952.6875
39.7,1721466952.703125
35.7,1721466952.71875
31.31,1721466952.734375
26.63,1721466952.75
21.67,1721466952.765625
16.47,1721466952.78125
11.03,1721466952.796875
5.44,1721466952.8125
-0.16,1721466952.828125
-5.53,1721466952.84375
-10.39,1721466952.859375
-14.52,1721466952.875
-17.86,1721466952.890625
-20.58,1721466952.90625
-23.08,1721466952.921875
-25.94,1721466952.9375
-29.74,1721466952.953125
-34.88,1721466952.96875
-41.29,1721466952.984375
-48.33,1721466953.0
-54.74,1721466953.015625
-58.99,1721466953.03125
-59.75,1721466953.046875
-56.35,1721466953.0625
-49.05,1721466953.078125
-38.87,1721466953.09375
-27.17,1721466953.109375
-15.17,1721466953.125
-3.6,1721466953.140625
7.25,1721466953.15625
17.28,1721466953.171875
26.33,1721466953.1875
34.06,1721466953.203125
40.07,1721466953.21875
44.14,1721466953.234375
46.38,1721466953.25
47.2,1721466953.265625
47.12,1721466953.28125
46.53,1721466953.296875
45.64,1721466953.3125
44.5,1721466953.328125
43.15,1721466953.34375
41.75,1721466953.359375
40.62,1721466953.375
40.06,1721466953.390625
40.28,1721466953.40625
41.13,1721466953.421875
42.11,1721466953.4375
42.52,1721466953.453125
41.74,1721466953.46875
39.43,1721466953.484375
35.69,1721466953.5
31.03,1721466953.515625
26.09,1721466953.53125
21.4,1721466953.546875
17.18,1721466953.5625
13.28,1721466953.578125
9.33,1721466953.59375
4.89,1721466953.609375
-0.24,1721466953.625
-6.03,1721466953.640625
-12.1,1721466953.65625
-17.93,1721466953.671875
-22.96,1721466953.6875
-26.85,1721466953.703125
-29.63,1721466953.71875
-31.73,1721466953.734375
-33.9,1721466953.75
-36.99,1721466953.765625
-41.59,1721466953.78125
-47.74,1721466953.796875
-54.68,1721466953.8125
-60.96,1721466953.828125
-64.83,1721466953.84375
-64.75,1721466953.859375
-59.95,1721466953.875
-50.68,1721466953.890625
-38.07,1721466953.90625
-23.71,1721466953.921875
-9.13,1721466953.9375
4.59,1721466953.953125
16.94,1721466953.96875
27.71,1721466953.984375
36.77,1721466954.0
43.84,1721466954.015625
48.59,1721466954.03125
50.83,1721466954.046875
50.71,1721466954.0625
48.75,1721466954.078125
45.77,1721466954.09375
42.51,1721466954.109375
39.51,1721466954.125
36.98,1721466954.140625
34.87,1721466954.15625
33.06,1721466954.171875
31.45,1721466954.1875
30.03,1721466954.203125
28.79,1721466954.21875
27.61,1721466954.234375
26.23,1721466954.25
24.34,1721466954.265625
21.74,1721466954.28125
18.43,1721466954.296875
14.64,1721466954.3125
10.73,1721466954.328125
6.91,1721466954.34375
3.23,1721466954.359375
-0.44,1721466954.375
-4.35,1721466954.390625
-8.61,1721466954.40625
-13.17,1721466954.421875
-17.81,1721466954.4375
-22.25,1721466954.453125
-26.3,1721466954.46875
-29.86,1721466954.484375
-32.96,1721466954.5
-35.75,1721466954.515625
-38.46,1721466954.53125
-41.44,1721466954.546875
-45.14,1721466954.5625
-49.98,1721466954.578125
-56.03,1721466954.59375
-62.82,1721466954.609375
-69.14,1721466954.625
-73.34,1721466954.640625
-73.72,1721466954.65625
-69.21,1721466954.671875
-59.76,1721466954.6875
-46.36,1721466954.703125
-30.66,1721466954.71875
-14.44,1721466954.734375
0.86,1721466954.75
14.37,1721466954.765625
25.7,1721466954.78125
34.77,1721466954.796875
41.59,1721466954.8125
46.19,1721466954.828125
48.71,1721466954.84375
49.36,1721466954.859375
48.53,1721466954.875
46.7,1721466954.890625
44.34,1721466954.90625
41.86,1721466954.921875
39.57,1721466954.9375
37.67,1721466954.953125
36.19,1721466954.96875
35.06,1721466954.984375
34.14,1721466955.0
33.28,1721466955.015625
32.35,1721466955.03125
31.29,1721466955.046875
30.08,1721466955.0625
28.66,1721466955.078125
26.97,1721466955.09375
24.96,1721466955.109375
22.62,1721466955.125
19.99,1721466955.140625
17.14,1721466955.15625
14.12,1721466955.171875
10.93,1721466955.1875
7.48,1721466955.203125
3.77,1721466955.21875
-0.13,1721466955.234375
-4.05,1721466955.25
-7.78,1721466955.265625
-11.2,1721466955.28125
-14.35,1721466955.296875
-17.44,1721466955.3125
-20.75,1721466955.328125
-24.61,1721466955.34375
-29.27,1721466955.359375
-34.79,1721466955.375
-40.92,1721466955.390625
-46.94,1721466955.40625
-51.66,1721466955.421875
-53.58,1721466955.4375
-51.36,1721466955.453125
-44.23,1721466955.46875
-32.38,1721466955.484375
-16.92,1721466955.5
0.52,1721466955.515625
18.34,1721466955.53125
35.36,1721466955.546875
51.11,1721466955.5625
65.46,1721466955.578125
78.38,1721466955.59375
89.43,1721466955.609375
97.79,1721466955.625
102.37,1721466955.640625
102.2,1721466955.65625
96.87,1721466955.671875
86.74,1721466955.6875
72.91,1721466955.703125
57.01,1721466955.71875
40.8,1721466955.734375
25.81,1721466955.75
13.13,1721466955.765625
3.32,1721466955.78125
-3.55,1721466955.796875
-7.73,1721466955.8125
-9.78,1721466955.828125
-10.37,1721466955.84375
-10.27,1721466955.859375
-10.22,1721466955.875
-10.77,1721466955.890625
-12.26,1721466955.90625
-14.64,1721466955.921875
-17.66,1721466955.9375
-20.85,1721466955.953125
-23.8,1721466955.96875
-26.31,1721466955.984375
-28.48,1721466956.0
-30.63,1721466956.015625
-33.13,1721466956.03125
-36.22,1721466956.046875
-39.81,1721466956.0625
-43.54,1721466956.078125
-46.92,1721466956.09375
-49.57,1721466956.109375
-51.33,1721466956.125
-52.44,1721466956.140625
-53.42,1721466956.15625
-55.05,1721466956.171875
-58.03,1721466956.1875
-62.76,1721466956.203125
-68.94,1721466956.21875
-75.44,1721466956.234375
-80.46,1721466956.25
-82.01,1721466956.265625
-78.57,1721466956.28125
-69.72,1721466956.296875
-56.28,1721466956.3125
-39.99,1721466956.328125
-22.87,1721466956.34375
-6.6,1721466956.359375
7.88,1721466956.375
20.23,1721466956.390625
30.44,1721466956.40625
38.51,1721466956.421875
44.29,1721466956.4375
47.64,1721466956.453125
48.62,1721466956.46875
47.64,1721466956.484375
45.41,1721466956.5
42.73,1721466956.515625
40.29,1721466956.53125
38.44,1721466956.546875
37.24,1721466956.5625
36.51,1721466956.578125
36.02,1721466956.59375
35.6,1721466956.609375
35.24,1721466956.625
34.97,1721466956.640625
34.79,1721466956.65625
34.6,1721466956.671875
34.14,1721466956.6875
33.11,1721466956.703125
31.27,1721466956.71875
28.59,1721466956.734375
25.25,1721466956.75
21.65,1721466956.765625
18.18,1721466956.78125
15.07,1721466956.796875
12.31,1721466956.8125
9.62,1721466956.828125
6.59,1721466956.84375
2.88,1721466956.859375
-1.65,1721466956.875
-6.79,1721466956.890625
-12.07,1721466956.90625
-16.94,1721466956.921875
-21.0,1721466956.9375
-24.16,1721466956.953125
-26.77,1721466956.96875
-29.4,1721466956.984375
-32.82,1721466957.0
-37.66,1721466957.015625
-44.26,1721466957.03125
-52.41,1721466957.046875
-61.26,1721466957.0625
-69.27,1721466957.078125
-74.57,1721466957.09375
-75.43,1721466957.109375
-70.79,1721466957.125
-60.69,1721466957.140625
-46.23,1721466957.15625
-29.29,1721466957.171875
-11.9,1721466957.1875
4.27,1721466957.203125
18.21,1721466957.21875
29.55,1721466957.234375
38.31,1721466957.25
44.66,1721466957.265625
48.8,1721466957.28125
50.89,1721466957.296875
51.24,1721466957.3125
50.23,1721466957.328125
48.41,1721466957.34375
46.34,1721466957.359375
44.49,1721466957.375
43.1,1721466957.390625
42.17,1721466957.40625
41.5,1721466957.421875
40.88,1721466957.4375
40.24,1721466957.453125
39.73,1721466957.46875
39.63,1721466957.484375
40.16,1721466957.5
41.23,1721466957.515625
42.48,1721466957.53125
43.28,1721466957.546875
43.04,1721466957.5625
41.46,1721466957.578125
38.68,1721466957.59375
35.21,1721466957.609375
31.73,1721466957.625
28.8,1721466957.640625
26.63,1721466957.65625
25.06,1721466957.671875
23.6,1721466957.6875
21.65,1721466957.703125
18.79,1721466957.71875
14.88,1721466957.734375
10.18,1721466957.75
5.19,1721466957.765625
0.59,1721466957.78125
-3.22,1721466957.796875
-6.27,1721466957.8125
-9.19,1721466957.828125
-13.12,1721466957.84375
-19.46,1721466957.859375
-29.47,1721466957.875
-43.9,1721466957.890625
-62.61,1721466957.90625
-84.37,1721466957.921875
-106.83,1721466957.9375
-126.8,1721466957.953125
-140.9,1721466957.96875
-146.38,1721466957.984375
-141.97,1721466958.0
-128.38,1721466958.015625
-108.05,1721466958.03125
-84.45,1721466958.046875
-60.95,1721466958.0625
-39.98,1721466958.078125
-22.59,1721466958.09375
-8.74,1721466958.109375
2.17,1721466958.125
10.72,1721466958.140625
17.2,1721466958.15625
21.75,1721466958.171875
24.57,1721466958.1875
26.07,1721466958.203125
26.89,1721466958.21875
27.61,1721466958.234375
28.58,1721466958.25
29.8,1721466958.265625
31.0,1721466958.28125
31.84,1721466958.296875
32.12,1721466958.3125
31.92,1721466958.328125
31.51,1721466958.34375
31.3,1721466958.359375
31.52,1721466958.375
32.13,1721466958.390625
32.81,1721466958.40625
32.98,1721466958.421875
32.11,1721466958.4375
29.88,1721466958.453125
26.37,1721466958.46875
21.97,1721466958.484375
17.29,1721466958.5
12.86,1721466958.515625
8.96,1721466958.53125
5.55,1721466958.546875
2.33,1721466958.5625
-1.07,1721466958.578125
-4.94,1721466958.59375
-9.36,1721466958.609375
-14.11,1721466958.625
-18.85,1721466958.640625
-23.22,1721466958.65625
-26.99,1721466958.671875
-30.11,1721466958.6875
-32.73,1721466958.703125
-35.15,1721466958.71875
-37.75,1721466958.734375
-40.95,1721466958.75
-45.1,1721466958.765625
-50.35,1721466958.78125
-56.49,1721466958.796875
-62.8,1721466958.8125
-68.02,1721466958.828125
-70.63,1721466958.84375
-69.23,1721466958.859375
-63.0,1721466958.875
-52.12,1721466958.890625
-37.67,1721466958.90625
-21.34,1721466958.921875
-4.9,1721466958.9375
10.28,1721466958.953125
23.42,1721466958.96875
34.18,1721466958.984375
42.52,1721466959.0
48.35,1721466959.015625
51.64,1721466959.03125
52.41,1721466959.046875
51.0,1721466959.0625
48.06,1721466959.078125
44.44,1721466959.09375
41.0,1721466959.109375
38.29,1721466959.125
36.57,1721466959.140625
35.71,1721466959.15625
35.4,1721466959.171875
35.33,1721466959.1875
35.33,1721466959.203125
35.35,1721466959.21875
35.48,1721466959.234375
35.76,1721466959.25
36.13,1721466959.265625
36.34,1721466959.28125
36.02,1721466959.296875
34.81,1721466959.3125
32.54,1721466959.328125
29.36,1721466959.34375
25.64,1721466959.359375
21.9,1721466959.375
18.56,1721466959.390625
15.75,1721466959.40625
13.31,1721466959.421875
10.86,1721466959.4375
8.03,1721466959.453125
4.6,1721466959.46875
0.62,1721466959.484375
-3.67,1721466959.5
-7.95,1721466959.515625
-11.9,1721466959.53125
-15.3,1721466959.546875
-18.03,1721466959.5625
-20.1,1721466959.578125
-21.71,1721466959.59375
-23.21,1721466959.609375
-25.04,1721466959.625
-27.66,1721466959.640625
-31.21,1721466959.65625
-35.31,1721466959.671875
-38.95,1721466959.6875
-40.66,1721466959.703125
-38.92,1721466959.71875
-32.68,1721466959.734375
-21.7,1721466959.75
-6.7,1721466959.765625
10.97,1721466959.78125
29.65,1721466959.796875
47.82,1721466959.8125
64.22,1721466959.828125
77.84,1721466959.84375
87.87,1721466959.859375
93.61,1721466959.875
94.58,1721466959.890625
90.87,1721466959.90625
83.27,1721466959.921875
73.35,1721466959.9375
63.11,1721466959.953125
54.39,1721466959.96875
48.32,1721466959.984375
44.92,1721466960.0
43.26,1721466960.015625
41.86,1721466960.03125
39.34,1721466960.046875
34.94,1721466960.0625
28.62,1721466960.078125
20.91,1721466960.09375
12.47,1721466960.109375
3.88,1721466960.125
-4.53,1721466960.140625
-12.58,1721466960.15625
-20.15,1721466960.171875
-27.05,1721466960.1875
-33.13,1721466960.203125
-38.29,1721466960.21875
-42.47,1721466960.234375
-45.68,1721466960.25
-47.99,1721466960.265625
-49.58,1721466960.28125
-50.76,1721466960.296875
-51.97,1721466960.3125
-53.6,1721466960.328125
-55.87,1721466960.34375
-58.69,1721466960.359375
-61.65,1721466960.375
-64.25,1721466960.390625
-66.1,1721466960.40625
-67.1,1721466960.421875
-67.48,1721466960.4375
-67.7,1721466960.453125
-68.35,1721466960.46875
-69.95,1721466960.484375
-72.87,1721466960.5
-77.09,1721466960.515625
-82.04,1721466960.53125
-86.53,1721466960.546875
-88.86,1721466960.5625
-87.28,1721466960.578125
-80.61,1721466960.59375
-68.68,1721466960.609375
-52.54,1721466960.625
-34.1,1721466960.640625
-15.57,1721466960.65625
1.22,1721466960.671875
15.17,1721466960.6875
25.96,1721466960.703125
33.77,1721466960.71875
38.93,1721466960.734375
41.75,1721466960.75
42.47,1721466960.765625
41.34,1721466960.78125
38.81,1721466960.796875
35.46,1721466960.8125
31.9,1721466960.828125
28.67,1721466960.84375
26.07,1721466960.859375
24.17,1721466960.875
22.84,1721466960.890625
21.89,1721466960.90625
21.25,1721466960.921875
20.91,1721466960.9375
20.91,1721466960.953125
21.19,1721466960.96875
21.51,1721466960.984375
21.48,1721466961.0
20.7,1721466961.015625
18.91,1721466961.03125
16.14,1721466961.046875
12.68,1721466961.0625
8.88,1721466961.078125
5.04,1721466961.09375
1.18,1721466961.109375
-2.87,1721466961.125
-7.34,1721466961.140625
-12.33,1721466961.15625
-17.71,1721466961.171875
-23.11,1721466961.1875
-28.12,1721466961.203125
-32.45,1721466961.21875
-36.11,1721466961.234375
-39.45,1721466961.25
-43.05,1721466961.265625
-47.52,1721466961.28125
-53.24,1721466961.296875
-60.04,1721466961.3125
-67.07,1721466961.328125
-72.89,1721466961.34375
-75.69,1721466961.359375
-73.91,1721466961.375
-66.76,1721466961.390625
-54.52,1721466961.40625
-38.55,1721466961.421875
-20.8,1721466961.4375
-3.16,1721466961.453125
12.99,1721466961.46875
26.96,1721466961.484375
38.65,1721466961.5
48.09,1721466961.515625
55.24,1721466961.53125
59.96,1721466961.546875
62.17,1721466961.5625
62.13,1721466961.578125
60.53,1721466961.59375
58.27,1721466961.609375
56.16,1721466961.625
54.61,1721466961.640625
53.54,1721466961.65625
52.58,1721466961.671875
51.37,1721466961.6875
49.84,1721466961.703125
48.24,1721466961.71875
46.98,1721466961.734375
46.33,1721466961.75
46.27,1721466961.765625
46.41,1721466961.78125
46.23,1721466961.796875
45.28,1721466961.8125
43.32,1721466961.828125
40.29,1721466961.84375
36.31,1721466961.859375
31.54,1721466961.875
26.22,1721466961.890625
20.69,1721466961.90625
15.45,1721466961.921875
10.98,1721466961.9375
7.55,1721466961.953125
4.99,1721466961.96875
2.54,1721466961.984375
-0.98,1721466962.0
-6.86,1721466962.015625
-16.09,1721466962.03125
-28.94,1721466962.046875
-44.75,1721466962.0625
-62.01,1721466962.078125
-78.62,1721466962.09375
-92.39,1721466962.109375
-101.49,1721466962.125
-104.83,1721466962.140625
-102.17,1721466962.15625
-94.0,1721466962.171875
-81.49,1721466962.1875
-66.3,1721466962.203125
-50.58,1721466962.21875
-36.66,1721466962.234375
-26.54,1721466962.25
-21.2,1721466962.265625
-20.1,1721466962.28125
-21.22,1721466962.296875
-21.75,1721466962.3125
-19.23,1721466962.328125
-12.6,1721466962.34375
-2.47,1721466962.359375
9.35,1721466962.375
20.78,1721466962.390625
30.36,1721466962.40625
37.54,1721466962.421875
42.43,1721466962.4375
45.29,1721466962.453125
46.17,1721466962.46875
44.91,1721466962.484375
41.57,1721466962.5
36.63,1721466962.515625
31.07,1721466962.53125
25.97,1721466962.546875
22.11,1721466962.5625
19.63,1721466962.578125
18.05,1721466962.59375
16.54,1721466962.609375
14.35,1721466962.625
11.06,1721466962.640625
6.76,1721466962.65625
1.91,1721466962.671875
-2.95,1721466962.6875
-7.41,1721466962.703125
-11.35,1721466962.71875
-14.99,1721466962.734375
-18.68,1721466962.75
-22.71,1721466962.765625
-27.13,1721466962.78125
-31.74,1721466962.796875
-36.1,1721466962.8125
-39.84,1721466962.828125
-42.8,1721466962.84375
-45.23,1721466962.859375
-47.73,1721466962.875
-51.11,1721466962.890625
-55.97,1721466962.90625
-62.43,1721466962.921875
-69.84,1721466962.9375
-76.8,1721466962.953125
-81.45,1721466962.96875
-81.99,1721466962.984375
-77.24,1721466963.0
-67.09,1721466963.015625
-52.51,1721466963.03125
-35.28,1721466963.046875
-17.43,1721466963.0625
-0.68,1721466963.078125
13.94,1721466963.09375
26.03,1721466963.109375
35.63,1721466963.125
42.87,1721466963.140625
47.83,1721466963.15625
50.53,1721466963.171875
51.11,1721466963.1875
50.03,1721466963.203125
48.03,1721466963.21875
45.92,1721466963.234375
44.31,1721466963.25
43.42,1721466963.265625
43.07,1721466963.28125
42.89,1721466963.296875
42.59,1721466963.3125
42.17,1721466963.328125
41.85,1721466963.34375
41.88,1721466963.359375
42.28,1721466963.375
42.69,1721466963.390625
42.55,1721466963.40625
41.29,1721466963.421875
38.71,1721466963.4375
35.08,1721466963.453125
31.01,1721466963.46875
27.2,1721466963.484375
24.01,1721466963.5
21.39,1721466963.515625
18.92,1721466963.53125
16.1,1721466963.546875
12.68,1721466963.5625
8.76,1721466963.578125
4.72,1721466963.59375
1.02,1721466963.609375
-2.1,1721466963.625
-4.67,1721466963.640625
-7.02,1721466963.65625
-9.6,1721466963.671875
-12.85,1721466963.6875
-17.1,1721466963.703125
-22.42,1721466963.71875
-28.41,1721466963.734375
-34.17,1721466963.75
-38.22,1721466963.765625
-38.78,1721466963.78125
-34.35,1721466963.796875
-24.21,1721466963.8125
-8.83,1721466963.828125
10.18,1721466963.84375
30.56,1721466963.859375
50.02,1721466963.875
66.83,1721466963.890625
80.06,1721466963.90625
89.49,1721466963.921875
95.22,1721466963.9375
97.24,1721466963.953125
95.31,1721466963.96875
88.96,1721466963.984375
77.89,1721466964.0
62.3,1721466964.015625
43.19,1721466964.03125
22.32,1721466964.046875
1.91,1721466964.0625
-15.85,1721466964.078125
-29.32,1721466964.09375
-37.71,1721466964.109375
-41.21,1721466964.125
-40.75,1721466964.140625
-37.62,1721466964.15625
-33.15,1721466964.171875
-28.39,1721466964.1875
-24.05,1721466964.203125
-20.52,1721466964.21875
-17.94,1721466964.234375
-16.32,1721466964.25
-15.55,1721466964.265625
-15.42,1721466964.28125
-15.57,1721466964.296875
-15.69,1721466964.3125
-15.54,1721466964.328125
-15.13,1721466964.34375
-14.75,1721466964.359375
-14.84,1721466964.375
-15.79,1721466964.390625
-17.8,1721466964.40625
-20.81,1721466964.421875
-24.49,1721466964.4375
-28.46,1721466964.453125
-32.37,1721466964.46875
-35.93,1721466964.484375
-38.94,1721466964.5
-41.37,1721466964.515625
-43.34,1721466964.53125
-45.2,1721466964.546875
-47.49,1721466964.5625
-50.79,1721466964.578125
-55.57,1721466964.59375
-61.93,1721466964.609375
-69.48,1721466964.625
-77.26,1721466964.640625
-83.87,1721466964.65625
-87.58,1721466964.671875
-86.89,1721466964.6875
-80.83,1721466964.703125
-69.34,1721466964.71875
-53.42,1721466964.734375
-34.79,1721466964.75
-15.44,1721466964.765625
2.88,1721466964.78125
19.05,1721466964.796875
32.66,1721466964.8125
43.69,1721466964.828125
52.24,1721466964.84375
58.39,1721466964.859375
62.15,1721466964.875
63.59,1721466964.890625
63.05,1721466964.90625
61.11,1721466964.921875
58.48,1721466964.9375
55.86,1721466964.953125
53.66,1721466964.96875
51.92,1721466964.984375
50.42,1721466965.0
48.87,1721466965.015625
47.13,1721466965.03125
45.33,1721466965.046875
43.78,1721466965.0625
42.78,1721466965.078125
42.38,1721466965.09375
42.33,1721466965.109375
42.08,1721466965.125
41.11,1721466965.140625
39.04,1721466965.15625
35.81,1721466965.171875
31.73,1721466965.1875
27.22,1721466965.203125
22.77,1721466965.21875
18.67,1721466965.234375
14.94,1721466965.25
11.33,1721466965.265625
7.48,1721466965.28125
3.05,1721466965.296875
-2.07,1721466965.3125
-7.65,1721466965.328125
-13.26,1721466965.34375
-18.39,1721466965.359375
-22.7,1721466965.375
-26.13,1721466965.390625
-28.9,1721466965.40625
-31.4,1721466965.421875
-34.1,1721466965.4375
-37.5,1721466965.453125
-41.98,1721466965.46875
-47.71,1721466965.484375
-54.4,1721466965.5
-61.15,1721466965.515625
-66.44,1721466965.53125
-68.45,1721466965.546875
-65.65,1721466965.5625
-57.4,1721466965.578125
-44.31,1721466965.59375
-28.1,1721466965.609375
-11.05,1721466965.625
4.75,1721466965.640625
18.01,1721466965.65625
28.29,1721466965.671875
35.86,1721466965.6875
41.24,1721466965.703125
44.82,1721466965.71875
46.77,1721466965.734375
47.18,1721466965.75
46.19,1721466965.765625
44.14,1721466965.78125
41.51,1721466965.796875
38.79,1721466965.8125
36.31,1721466965.828125
34.23,1721466965.84375
32.57,1721466965.859375
31.26,1721466965.875
30.22,1721466965.890625
29.42,1721466965.90625
28.75,1721466965.921875
28.09,1721466965.9375
27.23,1721466965.953125
25.93,1721466965.96875
23.99,1721466965.984375
21.33,1721466966.0
18.0,1721466966.015625
14.17,1721466966.03125
10.04,1721466966.046875
5.72,1721466966.0625
1.19,1721466966.078125
-3.61,1721466966.09375
-8.72,1721466966.109375
-14.08,1721466966.125
-19.43,1721466966.140625
-24.46,1721466966.15625
-28.87,1721466966.171875
-32.55,1721466966.1875
-35.65,1721466966.203125
-38.57,1721466966.21875
-41.91,1721466966.234375
-46.24,1721466966.25
-51.9,1721466966.265625
-58.69,1721466966.28125
-65.75,1721466966.296875
-71.57,1721466966.3125
-74.37,1721466966.328125
-72.59,1721466966.34375
-65.49,1721466966.359375
-53.46,1721466966.375
-37.94,1721466966.390625
-20.96,1721466966.40625
-4.51,1721466966.421875
9.96,1721466966.4375
21.82,1721466966.453125
31.04,1721466966.46875
37.88,1721466966.484375
42.56,1721466966.5
45.22,1721466966.515625
45.88,1721466966.53125
44.73,1721466966.546875
42.19,1721466966.5625
38.89,1721466966.578125
35.49,1721466966.59375
32.56,1721466966.609375
30.36,1721466966.625
28.94,1721466966.640625
28.18,1721466966.65625
27.92,1721466966.671875
28.05,1721466966.6875
28.46,1721466966.703125
28.97,1721466966.71875
29.28,1721466966.734375
29.0,1721466966.75
27.81,1721466966.765625
25.57,1721466966.78125
22.46,1721466966.796875
18.8,1721466966.8125
14.96,1721466966.828125
11.18,1721466966.84375
7.42,1721466966.859375
3.51,1721466966.875
-0.79,1721466966.890625
-5.57,1721466966.90625
-10.73,1721466966.921875
-16.0,1721466966.9375
-21.06,1721466966.953125
-25.66,1721466966.96875
-29.72,1721466966.984375
-33.38,1721466967.0
-36.88,1721466967.015625
-40.66,1721466967.03125
-45.13,1721466967.046875
-50.61,1721466967.0625
-57.08,1721466967.078125
-63.94,1721466967.09375
-70.03,1721466967.109375
-73.74,1721466967.125
-73.49,1721466967.140625
-68.25,1721466967.15625
-57.96,1721466967.171875
-43.63,1721466967.1875
-27.04,1721466967.203125
-10.17,1721466967.21875
5.37,1721466967.234375
18.66,1721466967.25
29.51,1721466967.265625
38.13,1721466967.28125
44.8,1721466967.296875
49.6,1721466967.3125
52.49,1721466967.328125
53.39,1721466967.34375
52.43,1721466967.359375
50.01,1721466967.375
46.75,1721466967.390625
43.32,1721466967.40625
40.19,1721466967.421875
37.61,1721466967.4375
35.55,1721466967.453125
33.87,1721466967.46875
32.48,1721466967.484375
31.34,1721466967.5
30.49,1721466967.515625
29.85,1721466967.53125
29.2,1721466967.546875
28.24,1721466967.5625
26.66,1721466967.578125
24.35,1721466967.59375
21.43,1721466967.609375
18.12,1721466967.625
14.66,1721466967.640625
11.11,1721466967.65625
7.36,1721466967.671875
3.24,1721466967.6875
-1.27,1721466967.703125
-6.02,1721466967.71875
-10.67,1721466967.734375
-14.88,1721466967.75
-18.49,1721466967.765625
-21.56,1721466967.78125
-24.38,1721466967.796875
-27.29,1721466967.8125
-30.59,1721466967.828125
-34.44,1721466967.84375
-38.81,1721466967.859375
-43.35,1721466967.875
-47.33,1721466967.890625
-49.64,1721466967.90625
-48.96,1721466967.921875
-44.13,1721466967.9375
-34.6,1721466967.953125
-20.6,1721466967.96875
-3.19,1721466967.984375
16.16,1721466968.0
35.94,1721466968.015625
54.9,1721466968.03125
72.21,1721466968.046875
87.25,1721466968.0625
99.52,1721466968.078125
108.52,1721466968.09375
113.8,1721466968.109375
115.08,1721466968.125
112.35,1721466968.140625
106.02,1721466968.15625
96.81,1721466968.171875
85.74,1721466968.1875
73.93,1721466968.203125
62.32,1721466968.21875
51.5,1721466968.234375
41.72,1721466968.25
32.96,1721466968.265625
25.17,1721466968.28125
18.32,1721466968.296875
12.33,1721466968.3125
6.86,1721466968.328125
1.27,1721466968.34375
-5.21,1721466968.359375
-12.99,1721466968.375
-21.8,1721466968.390625
-30.64,1721466968.40625
-38.22,1721466968.421875
-43.65,1721466968.4375
-46.92,1721466968.453125
-48.88,1721466968.46875
-50.81,1721466968.484375
-53.63,1721466968.5
-57.54,1721466968.515625
-62.03,1721466968.53125
-66.29,1721466968.546875
-69.73,1721466968.5625
-72.3,1721466968.578125
-74.39,1721466968.59375
-76.49,1721466968.609375
-78.97,1721466968.625
-81.95,1721466968.640625
-85.39,1721466968.65625
-89.24,1721466968.671875
-93.38,1721466968.6875
-97.42,1721466968.703125
-100.5,1721466968.71875
-101.32,1721466968.734375
-98.45,1721466968.75
-90.88,1721466968.765625
-78.47,1721466968.78125
-62.21,1721466968.796875
-43.84,1721466968.8125
-25.36,1721466968.828125
-8.45,1721466968.84375
5.99,1721466968.859375
17.7,1721466968.875
26.82,1721466968.890625
33.51,1721466968.90625
37.82,1721466968.921875
39.78,1721466968.9375
39.51,1721466968.953125
37.49,1721466968.96875
34.44,1721466968.984375
31.18,1721466969.0
28.36,1721466969.015625
26.36,1721466969.03125
25.18,1721466969.046875
24.65,1721466969.0625
24.54,1721466969.078125
24.66,1721466969.09375
24.89,1721466969.109375
25.04,1721466969.125
24.96,1721466969.140625
24.42,1721466969.15625
23.26,1721466969.171875
21.41,1721466969.1875
18.95,1721466969.203125
16.08,1721466969.21875
13.0,1721466969.234375
9.88,1721466969.25
6.76,1721466969.265625
3.55,1721466969.28125
0.09,1721466969.296875
-3.78,1721466969.3125
-8.09,1721466969.328125
-12.77,1721466969.34375
-17.61,1721466969.359375
-22.33,1721466969.375
-26.68,1721466969.390625
-30.53,1721466969.40625
-33.98,1721466969.421875
-37.39,1721466969.4375
-41.28,1721466969.453125
-46.2,1721466969.46875
-52.32,1721466969.484375
-59.2,1721466969.5
-65.63,1721466969.515625
-69.91,1721466969.53125
-70.33,1721466969.546875
-65.79,1721466969.5625
-56.19,1721466969.578125
-42.47,1721466969.59375
-26.26,1721466969.609375
-9.35,1721466969.625
6.78,1721466969.640625
21.16,1721466969.65625
33.32,1721466969.671875
43.16,1721466969.6875
50.71,1721466969.703125
56.04,1721466969.71875
59.25,1721466969.734375
60.49,1721466969.75
60.03,1721466969.765625
58.32,1721466969.78125
55.96,1721466969.796875
53.61,1721466969.8125
51.85,1721466969.828125
50.97,1721466969.84375
50.92,1721466969.859375
51.32,1721466969.875
51.73,1721466969.890625
51.85,1721466969.90625
51.7,1721466969.921875
51.56,1721466969.9375
51.76,1721466969.953125
52.49,1721466969.96875
53.57,1721466969.984375
54.55,1721466970.0
54.81,1721466970.015625
53.86,1721466970.03125
51.5,1721466970.046875
47.89,1721466970.0625
43.48,1721466970.078125
38.81,1721466970.09375
34.32,1721466970.109375
30.2,1721466970.125
26.32,1721466970.140625
22.24,1721466970.15625
17.3,1721466970.171875
10.81,1721466970.1875
2.31,1721466970.203125
-8.22,1721466970.21875
-20.22,1721466970.234375
-32.7,1721466970.25
-44.53,1721466970.265625
-54.84,1721466970.28125
-63.33,1721466970.296875
-70.38,1721466970.3125
-76.91,1721466970.328125
-83.95,1721466970.34375
-92.25,1721466970.359375
-101.9,1721466970.375
-112.13,1721466970.390625
-121.35,1721466970.40625
-127.45,1721466970.421875
-128.38,1721466970.4375
-122.74,1721466970.453125
-110.3,1721466970.46875
-92.12,1721466970.484375
-70.31,1721466970.5
-47.36,1721466970.515625
-25.46,1721466970.53125
-6.1,1721466970.546875
10.1,1721466970.5625
23.16,1721466970.578125
33.35,1721466970.59375
41.0,1721466970.609375
46.38,1721466970.625
49.78,1721466970.640625
51.59,1721466970.65625
52.29,1721466970.671875
52.29,1721466970.6875
51.91,1721466970.703125
51.31,1721466970.71875
50.47,1721466970.734375
49.36,1721466970.75
48.05,1721466970.765625
46.71,1721466970.78125
45.64,1721466970.796875
45.04,1721466970.8125
44.88,1721466970.828125
44.88,1721466970.84375
44.56,1721466970.859375
43.46,1721466970.875
41.31,1721466970.890625
38.16,1721466970.90625
34.34,1721466970.921875
30.23,1721466970.9375
26.16,1721466970.953125
22.2,1721466970.96875
18.29,1721466970.984375
14.32,1721466971.0
10.18,1721466971.015625
5.91,1721466971.03125
1.62,1721466971.046875
-2.62,1721466971.0625
-6.79,1721466971.078125
-10.93,1721466971.09375
-15.08,1721466971.109375
-19.23,1721466971.125
-23.25,1721466971.140625
-26.98,1721466971.15625
-30.26,1721466971.171875
-33.01,1721466971.1875
-35.3,1721466971.203125
-37.38,1721466971.21875
-39.6,1721466971.234375
-42.44,1721466971.25
-46.38,1721466971.265625
-51.79,1721466971.28125
-58.68,1721466971.296875
-66.42,1721466971.3125
-73.7,1721466971.328125
-78.65,1721466971.34375
-79.4,1721466971.359375
-74.68,1721466971.375
-64.3,1721466971.390625
-49.36,1721466971.40625
-31.82,1721466971.421875
-13.91,1721466971.4375
2.57,1721466971.453125
16.58,1721466971.46875
27.83,1721466971.484375
36.48,1721466971.5
42.75,1721466971.515625
46.71,1721466971.53125
48.34,1721466971.546875
47.7,1721466971.5625
45.18,1721466971.578125
41.49,1721466971.59375
37.53,1721466971.609375
34.09,1721466971.625
31.62,1721466971.640625
30.14,1721466971.65625
29.36,1721466971.671875
28.85,1721466971.6875
28.4,1721466971.703125
27.97,1721466971.71875
27.7,1721466971.734375
27.68,1721466971.75
27.76,1721466971.765625
27.53,1721466971.78125
26.49,1721466971.796875
24.28,1721466971.8125
20.9,1721466971.828125
16.81,1721466971.84375
12.66,1721466971.859375
9.09,1721466971.875
6.3,1721466971.890625
4.03,1721466971.90625
1.63,1721466971.921875
-1.66,1721466971.9375
-6.25,1721466971.953125
-11.99,1721466971.96875
-18.22,1721466971.984375
-24.03,1721466972.0
-28.65,1721466972.015625
-31.79,1721466972.03125
-33.75,1721466972.046875
-35.22,1721466972.0625
-37.06,1721466972.078125
-39.97,1721466972.09375
-44.29,1721466972.109375
-49.92,1721466972.125
-56.19,1721466972.140625
-61.89,1721466972.15625
-65.43,1721466972.171875
-65.2,1721466972.1875
-60.06,1721466972.203125
-49.83,1721466972.21875
-35.37,1721466972.234375
-18.44,1721466972.25
-1.1,1721466972.265625
14.9,1721466972.28125
28.48,1721466972.296875
39.25,1721466972.3125
47.36,1721466972.328125
53.09,1721466972.34375
56.65,1721466972.359375
58.19,1721466972.375
57.76,1721466972.390625
55.54,1721466972.40625
51.84,1721466972.421875
47.2,1721466972.4375
42.31,1721466972.453125
37.9,1721466972.46875
34.62,1721466972.484375
32.74,1721466972.5
32.13,1721466972.515625
32.25,1721466972.53125
32.47,1721466972.546875
32.24,1721466972.5625
31.29,1721466972.578125
29.64,1721466972.59375
27.42,1721466972.609375
24.73,1721466972.625
21.57,1721466972.640625
17.89,1721466972.65625
13.68,1721466972.671875
9.06,1721466972.6875
4.29,1721466972.703125
-0.28,1721466972.71875
-4.33,1721466972.734375
-7.71,1721466972.75
-10.42,1721466972.765625
-12.69,1721466972.78125
-14.86,1721466972.796875
-17.29,1721466972.8125
-20.17,1721466972.828125
-23.5,1721466972.84375
-27.03,1721466972.859375
-30.44,1721466972.875
-33.46,1721466972.890625
-36.02,1721466972.90625
-38.27,1721466972.921875
-40.52,1721466972.9375
-43.07,1721466972.953125
-46.14,1721466972.96875
-49.9,1721466972.984375
-54.47,1721466973.0
-59.94,1721466973.015625
-66.2,1721466973.03125
-72.65,1721466973.046875
-78.09,1721466973.0625
-80.78,1721466973.078125
-78.99,1721466973.09375
-71.62,1721466973.109375
-58.82,1721466973.125
-42.01,1721466973.140625
-23.51,1721466973.15625
-5.7,1721466973.171875
9.72,1721466973.1875
22.06,1721466973.203125
31.58,1721466973.21875
38.91,1721466973.234375
44.65,1721466973.25
48.99,1721466973.265625
51.85,1721466973.28125
53.11,1721466973.296875
52.81,1721466973.3125
51.28,1721466973.328125
49.01,1721466973.34375
46.54,1721466973.359375
44.23,1721466973.375
42.23,1721466973.390625
40.51,1721466973.40625
38.98,1721466973.421875
37.59,1721466973.4375
36.39,1721466973.453125
35.47,1721466973.46875
34.88,1721466973.484375
34.5,1721466973.5
34.11,1721466973.515625
33.35,1721466973.53125
31.94,1721466973.546875
29.75,1721466973.5625
26.9,1721466973.578125
23.6,1721466973.59375
20.13,1721466973.609375
16.69,1721466973.625
13.32,1721466973.640625
10.01,1721466973.65625
6.73,1721466973.671875
3.46,1721466973.6875
0.19,1721466973.703125
-3.13,1721466973.71875
-6.64,1721466973.734375
-10.49,1721466973.75
-14.77,1721466973.765625
-19.46,1721466973.78125
-24.31,1721466973.796875
-28.99,1721466973.8125
-33.21,1721466973.828125
-36.81,1721466973.84375
-39.86,1721466973.859375
-42.64,1721466973.875
-45.5,1721466973.890625
-48.85,1721466973.90625
-53.1,1721466973.921875
-58.49,1721466973.9375
-64.9,1721466973.953125
-71.65,1721466973.96875
-77.3,1721466973.984375
-80.01,1721466974.0
-77.99,1721466974.015625
-70.26,1721466974.03125
-57.05,1721466974.046875
-39.9,1721466974.0625
-21.09,1721466974.078125
-2.93,1721466974.09375
12.94,1721466974.109375
25.87,1721466974.125
35.93,1721466974.140625
43.61,1721466974.15625
49.22,1721466974.171875
52.87,1721466974.1875
54.49,1721466974.203125
54.17,1721466974.21875
52.32,1721466974.234375
49.63,1721466974.25
46.9,1721466974.265625
44.78,1721466974.28125
43.52,1721466974.296875
43.04,1721466974.3125
43.02,1721466974.328125
43.14,1721466974.34375
43.26,1721466974.359375
43.5,1721466974.375
44.04,1721466974.390625
44.97,1721466974.40625
46.1,1721466974.421875
46.95,1721466974.4375
46.94,1721466974.453125
45.6,1721466974.46875
42.82,1721466974.484375
38.87,1721466974.5
34.28,1721466974.515625
29.51,1721466974.53125
24.77,1721466974.546875
19.84,1721466974.5625
14.29,1721466974.578125
7.67,1721466974.59375
-0.24,1721466974.609375
-9.32,1721466974.625
-19.28,1721466974.640625
-29.74,1721466974.65625
-40.48,1721466974.671875
-51.38,1721466974.6875
-62.38,1721466974.703125
-73.29,1721466974.71875
-83.78,1721466974.734375
-93.39,1721466974.75
-101.64,1721466974.765625
-108.2,1721466974.78125
-112.79,1721466974.796875
-115.04,1721466974.8125
-114.41,1721466974.828125
-110.25,1721466974.84375
-101.96,1721466974.859375
-89.39,1721466974.875
-73.09,1721466974.890625
-54.25,1721466974.90625
-34.48,1721466974.921875
-15.33,1721466974.9375
2.05,1721466974.953125
17.09,1721466974.96875
29.66,1721466974.984375
39.82,1721466975.0
47.54,1721466975.015625
52.71,1721466975.03125
55.21,1721466975.046875
55.15,1721466975.0625
53.0,1721466975.078125
49.54,1721466975.09375
45.74,1721466975.109375
42.44,1721466975.125
40.13,1721466975.140625
38.84,1721466975.15625
38.27,1721466975.171875
37.95,1721466975.1875
37.58,1721466975.203125
37.14,1721466975.21875
36.8,1721466975.234375
36.73,1721466975.25
36.85,1721466975.265625
36.75,1721466975.28125
35.85,1721466975.296875
33.65,1721466975.3125
30.05,1721466975.328125
25.41,1721466975.34375
20.38,1721466975.359375
15.63,1721466975.375
11.55,1721466975.390625
8.12,1721466975.40625
5.03,1721466975.421875
1.83,1721466975.4375
-1.82,1721466975.453125
-6.11,1721466975.46875
-10.97,1721466975.484375
-16.22,1721466975.5
-21.54,1721466975.515625
-26.61,1721466975.53125
-31.14,1721466975.546875
-35.03,1721466975.5625
-38.35,1721466975.578125
-41.46,1721466975.59375
-44.84,1721466975.609375
-49.09,1721466975.625
-54.65,1721466975.640625
-61.57,1721466975.65625
-69.31,1721466975.671875
-76.56,1721466975.6875
-81.5,1721466975.703125
-82.28,1721466975.71875
-77.62,1721466975.734375
-67.34,1721466975.75
-52.43,1721466975.765625
-34.79,1721466975.78125
-16.53,1721466975.796875
0.62,1721466975.8125
15.61,1721466975.828125
28.03,1721466975.84375
37.87,1721466975.859375
45.23,1721466975.875
50.23,1721466975.890625
52.95,1721466975.90625
53.62,1721466975.921875
52.61,1721466975.9375
50.38,1721466975.953125
47.46,1721466975.96875
44.35,1721466975.984375
41.5,1721466976.0
39.27,1721466976.015625
37.81,1721466976.03125
37.09,1721466976.046875
36.92,1721466976.0625
37.06,1721466976.078125
37.4,1721466976.09375
37.93,1721466976.109375
38.71,1721466976.125
39.64,1721466976.140625
40.47,1721466976.15625
40.72,1721466976.171875
39.97,1721466976.1875
37.97,1721466976.203125
34.81,1721466976.21875
30.88,1721466976.234375
26.7,1721466976.25
22.74,1721466976.265625
19.19,1721466976.28125
16.03,1721466976.296875
12.96,1721466976.3125
9.67,1721466976.328125
5.9,1721466976.34375
1.58,1721466976.359375
-3.1,1721466976.375
-7.75,1721466976.390625
-11.9,1721466976.40625
-15.13,1721466976.421875
-17.28,1721466976.4375
-18.46,1721466976.453125
-19.07,1721466976.46875
-19.69,1721466976.484375
-20.86,1721466976.5
-23.06,1721466976.515625
-26.45,1721466976.53125
-30.79,1721466976.546875
-35.32,1721466976.5625
-38.75,1721466976.578125
-39.55,1721466976.59375
-36.34,1721466976.609375
-28.42,1721466976.625
-16.15,1721466976.640625
-0.94,1721466976.65625
15.19,1721466976.671875
30.15,1721466976.6875
42.51,1721466976.703125
51.78,1721466976.71875
58.28,1721466976.734375
62.77,1721466976.75
65.91,1721466976.765625
67.92,1721466976.78125
68.58,1721466976.796875
67.44,1721466976.8125
64.28,1721466976.828125
59.3,1721466976.84375
53.17,1721466976.859375
46.74,1721466976.875
40.67,1721466976.890625
35.13,1721466976.90625
29.8,1721466976.921875
24.14,1721466976.9375
17.83,1721466976.953125
11.07,1721466976.96875
4.55,1721466976.984375
-0.78,1721466977.0
-4.21,1721466977.015625
-5.62,1721466977.03125
-5.61,1721466977.046875
-5.3,1721466977.0625
-5.98,1721466977.078125
-8.63,1721466977.09375
-13.64,1721466977.109375
-20.66,1721466977.125
-28.81,1721466977.140625
-36.98,1721466977.15625
-44.25,1721466977.171875
-50.17,1721466977.1875
-54.84,1721466977.203125
-58.71,1721466977.21875
-62.27,1721466977.234375
-65.79,1721466977.25
-69.17,1721466977.265625
-72.06,1721466977.28125
-74.18,1721466977.296875
-75.47,1721466977.3125
-76.23,1721466977.328125
-76.99,1721466977.34375
-78.34,1721466977.359375
-80.76,1721466977.375
-84.52,1721466977.390625
-89.6,1721466977.40625
-95.61,1721466977.421875
-101.7,1721466977.4375
-106.52,1721466977.453125
-108.4,1721466977.46875
-105.69,1721466977.484375
-97.26,1721466977.5
-83.0,1721466977.515625
-63.93,1721466977.53125
-42.04,1721466977.546875
-19.72,1721466977.5625
0.88,1721466977.578125
18.35,1721466977.59375
32.16,1721466977.609375
42.51,1721466977.625
49.88,1721466977.640625
54.76,1721466977.65625
57.37,1721466977.671875
57.88,1721466977.6875
56.51,1721466977.703125
53.78,1721466977.71875
50.48,1721466977.734375
47.47,1721466977.75
45.4,1721466977.765625
44.44,1721466977.78125
44.32,1721466977.796875
44.5,1721466977.8125
44.52,1721466977.828125
44.22,1721466977.84375
43.72,1721466977.859375
43.32,1721466977.875
43.21,1721466977.890625
43.29,1721466977.90625
43.19,1721466977.921875
42.41,1721466977.9375
40.53,1721466977.953125
37.45,1721466977.96875
33.37,1721466977.984375
28.78,1721466978.0
24.21,1721466978.015625
20.1,1721466978.03125
16.63,1721466978.046875
13.68,1721466978.0625
10.88,1721466978.078125
7.83,1721466978.09375
4.17,1721466978.109375
-0.27,1721466978.125
-5.39,1721466978.140625
-10.99,1721466978.15625
-16.74,1721466978.171875
-22.36,1721466978.1875
-27.6,1721466978.203125
-32.36,1721466978.21875
-36.68,1721466978.234375
-40.74,1721466978.25
-44.94,1721466978.265625
-49.77,1721466978.28125
-55.71,1721466978.296875
-62.9,1721466978.3125
-70.86,1721466978.328125
-78.27,1721466978.34375
-83.17,1721466978.359375
-83.45,1721466978.375
-77.63,1721466978.390625
-65.52,1721466978.40625
-48.4,1721466978.421875
-28.58,1721466978.4375
-8.64,1721466978.453125
9.46,1721466978.46875
24.74,1721466978.484375
37.17,1721466978.5
47.23,1721466978.515625
55.37,1721466978.53125
61.78,1721466978.546875
66.42,1721466978.5625
69.2,1721466978.578125
70.28,1721466978.59375
70.06,1721466978.609375
69.14,1721466978.625
68.07,1721466978.640625
67.26,1721466978.65625
66.83,1721466978.671875
66.72,1721466978.6875
66.71,1721466978.703125
66.64,1721466978.71875
66.45,1721466978.734375
66.22,1721466978.75
66.14,1721466978.765625
66.35,1721466978.78125
66.82,1721466978.796875
67.33,1721466978.8125
67.49,1721466978.828125
66.92,1721466978.84375
65.34,1721466978.859375
62.67,1721466978.875
58.92,1721466978.890625
54.2,1721466978.90625
48.53,1721466978.921875
41.84,1721466978.9375
33.92,1721466978.953125
24.51,1721466978.96875
13.4,1721466978.984375
0.57,1721466979.0
-13.7,1721466979.015625
-28.68,1721466979.03125
-43.3,1721466979.046875
-56.32,1721466979.0625
-66.56,1721466979.078125
-73.22,1721466979.09375
-76.1,1721466979.109375
-75.69,1721466979.125
-73.05,1721466979.140625
-69.72,1721466979.15625
-67.4,1721466979.171875
-67.65,1721466979.1875
-71.46,1721466979.203125
-78.77,1721466979.21875
-88.22,1721466979.234375
-97.35,1721466979.25
-103.18,1721466979.265625
-103.24,1721466979.28125
-96.44,1721466979.296875
-83.42,1721466979.3125
-66.29,1721466979.328125
-47.66,1721466979.34375
-29.8,1721466979.359375
-13.98,1721466979.375
-0.58,1721466979.390625
10.47,1721466979.40625
19.13,1721466979.421875
25.14,1721466979.4375
28.17,1721466979.453125
28.26,1721466979.46875
26.06,1721466979.484375
22.8,1721466979.5
19.82,1721466979.515625
18.01,1721466979.53125
17.6,1721466979.546875
18.13,1721466979.5625
18.9,1721466979.578125
19.32,1721466979.59375
19.26,1721466979.609375
18.96,1721466979.625
18.86,1721466979.640625
19.18,1721466979.65625
19.91,1721466979.671875
20.66,1721466979.6875
20.99,1721466979.703125
20.41,1721466979.71875
18.7,1721466979.734375
15.83,1721466979.75
12.05,1721466979.765625
7.79,1721466979.78125
3.59,1721466979.796875
-0.06,1721466979.8125
-2.85,1721466979.828125
-4.82,1721466979.84375
-6.32,1721466979.859375
-7.92,1721466979.875
-10.16,1721466979.890625
-13.35,1721466979.90625
-17.42,1721466979.921875
-21.99,1721466979.9375
-26.57,1721466979.953125
-30.76,1721466979.96875
-34.42,1721466979.984375
-37.67,1721466980.0
-40.8,1721466980.015625
-44.18,1721466980.03125
-48.16,1721466980.046875
-53.04,1721466980.0625
-58.95,1721466980.078125
-65.63,1721466980.09375
-72.28,1721466980.109375
-77.47,1721466980.125
-79.46,1721466980.140625
-76.69,1721466980.15625
-68.36,1721466980.171875
-54.85,1721466980.1875
-37.62,1721466980.203125
-18.72,1721466980.21875
-0.19,1721466980.234375
16.52,1721466980.25
30.68,1721466980.265625
42.11,1721466980.28125
50.89,1721466980.296875
57.09,1721466980.3125
60.71,1721466980.328125
61.83,1721466980.34375
60.81,1721466980.359375
58.36,1721466980.375
55.43,1721466980.390625
52.89,1721466980.40625
51.26,1721466980.421875
50.58,1721466980.4375
50.43,1721466980.453125
50.28,1721466980.46875
49.75,1721466980.484375
48.85,1721466980.5
47.92,1721466980.515625
47.34,1721466980.53125
47.35,1721466980.546875
47.84,1721466980.5625
48.43,1721466980.578125
48.72,1721466980.59375
48.44,1721466980.609375
47.56,1721466980.625
46.23,1721466980.640625
44.65,1721466980.65625
43.03,1721466980.671875
41.41,1721466980.6875
39.78,1721466980.703125
38.06,1721466980.71875
36.22,1721466980.734375
34.3,1721466980.75
32.45,1721466980.765625
30.9,1721466980.78125
29.73,1721466980.796875
28.75,1721466980.8125
27.39,1721466980.828125
24.84,1721466980.84375
20.4,1721466980.859375
13.71,1721466980.875
4.99,1721466980.890625
-5.17,1721466980.90625
-16.03,1721466980.921875
-26.92,1721466980.9375
-37.4,1721466980.953125
-47.16,1721466980.96875
-55.98,1721466980.984375
-63.69,1721466981.0
-70.26,1721466981.015625
-75.8,1721466981.03125
-80.41,1721466981.046875
-83.93,1721466981.0625
-85.79,1721466981.078125
-85.05,1721466981.09375
-80.8,1721466981.109375
-72.59,1721466981.125
-60.82,1721466981.140625
-46.7,1721466981.15625
-31.9,1721466981.171875
-18.05,1721466981.1875
-6.24,1721466981.203125
3.06,1721466981.21875
9.91,1721466981.234375
14.6,1721466981.25
17.4,1721466981.265625
18.46,1721466981.28125
17.92,1721466981.296875
16.05,1721466981.3125
13.35,1721466981.328125
10.53,1721466981.34375
8.28,1721466981.359375
7.02,1721466981.375
6.8,1721466981.390625
7.33,1721466981.40625
8.22,1721466981.421875
9.15,1721466981.4375
10.07,1721466981.453125
11.16,1721466981.46875
12.59,1721466981.484375
14.38,1721466981.5
16.25,1721466981.515625
17.7,1721466981.53125
18.22,1721466981.546875
17.46,1721466981.5625
15.45,1721466981.578125
12.57,1721466981.59375
9.42,1721466981.609375
6.51,1721466981.625
4.13,1721466981.640625
2.16,1721466981.65625
0.15,1721466981.671875
-2.45,1721466981.6875
-6.06,1721466981.703125
-10.75,1721466981.71875
-16.2,1721466981.734375
-21.83,1721466981.75
-27.03,1721466981.765625
-31.36,1721466981.78125
-34.71,1721466981.796875
-37.28,1721466981.8125
-39.52,1721466981.828125
-42.07,1721466981.84375
-45.6,1721466981.859375
-50.63,1721466981.875
-57.35,1721466981.890625
-65.26,1721466981.90625
-73.02,1721466981.921875
-78.64,1721466981.9375
-79.95,1721466981.953125
-75.36,1721466981.96875
-64.51,1721466981.984375
-48.51,1721466982.0
-29.59,1721466982.015625
-10.32,1721466982.03125
7.19,1721466982.046875
21.8,1721466982.0625
33.32,1721466982.078125
42.12,1721466982.09375
48.64,1721466982.109375
53.08,1721466982.125
55.46,1721466982.140625
55.81,1721466982.15625
54.42,1721466982.171875
51.84,1721466982.1875
48.72,1721466982.203125
45.65,1721466982.21875
42.95,1721466982.234375
40.74,1721466982.25
39.06,1721466982.265625
37.88,1721466982.28125
37.19,1721466982.296875
36.9,1721466982.3125
36.82,1721466982.328125
36.73,1721466982.34375
36.41,1721466982.359375
35.75,1721466982.375
34.74,1721466982.390625
33.41,1721466982.40625
31.75,1721466982.421875
29.73,1721466982.4375
27.29,1721466982.453125
24.43,1721466982.46875
21.25,1721466982.484375
17.9,1721466982.5
14.57,1721466982.515625
11.35,1721466982.53125
8.28,1721466982.546875
5.25,1721466982.5625
2.16,1721466982.578125
-1.1,1721466982.59375
-4.62,1721466982.609375
-8.37,1721466982.625
-12.24,1721466982.640625
-16.02,1721466982.65625
-19.47,1721466982.671875
-22.36,1721466982.6875
-24.61,1721466982.703125
-26.31,1721466982.71875
-27.73,1721466982.734375
-29.35,1721466982.75
-31.69,1721466982.765625
-35.17,1721466982.78125
-39.9,1721466982.796875
-45.48,1721466982.8125
-50.8,1721466982.828125
-54.17,1721466982.84375
-53.71,1721466982.859375
-47.91,1721466982.875
-36.14,1721466982.890625
-19.06,1721466982.90625
1.48,1721466982.921875
22.93,1721466982.9375
42.59,1721466982.953125
58.18,1721466982.96875
68.16,1721466982.984375
71.83,1721466983.0
69.25,1721466983.015625
61.2,1721466983.03125
48.98,1721466983.046875
34.38,1721466983.0625
19.39,1721466983.078125
5.83,1721466983.09375
-4.84,1721466983.109375
-11.9,1721466983.125
-15.33,1721466983.140625
-15.82,1721466983.15625
-14.43,1721466983.171875
-12.33,1721466983.1875
-10.44,1721466983.203125
-9.13,1721466983.21875
-8.26,1721466983.234375
-7.27,1721466983.25
-5.55,1721466983.265625
-2.84,1721466983.28125
0.65,1721466983.296875
4.26,1721466983.3125
7.13,1721466983.328125
8.66,1721466983.34375
8.63,1721466983.359375
7.28,1721466983.375
5.1,1721466983.390625
2.64,1721466983.40625
0.27,1721466983.421875
-1.86,1721466983.4375
-3.8,1721466983.453125
-5.7,1721466983.46875
-7.79,1721466983.484375
-10.31,1721466983.5
-13.45,1721466983.515625
-17.28,1721466983.53125
-21.7,1721466983.546875
-26.44,1721466983.5625
-31.12,1721466983.578125
-35.36,1721466983.59375
-39.02,1721466983.609375
-42.23,1721466983.625
-45.46,1721466983.640625
-49.36,1721466983.65625
-54.51,1721466983.671875
-61.08,1721466983.6875
-68.59,1721466983.703125
-75.79,1721466983.71875
-80.84,1721466983.734375
-81.82,1721466983.75
-77.33,1721466983.765625
-67.08,1721466983.78125
-52.0,1721466983.796875
-34.01,1721466983.8125
-15.38,1721466983.828125
1.92,1721466983.84375
16.67,1721466983.859375
28.45,1721466983.875
37.36,1721466983.890625
43.71,1721466983.90625
47.75,1721466983.921875
49.64,1721466983.9375
49.57,1721466983.953125
47.88,1721466983.96875
45.06,1721466983.984375
41.7,1721466984.0
38.36,1721466984.015625
35.41,1721466984.03125
33.04,1721466984.046875
31.29,1721466984.0625
30.07,1721466984.078125
29.27,1721466984.09375
28.78,1721466984.109375
28.49,1721466984.125
28.3,1721466984.140625
28.05,1721466984.15625
27.57,1721466984.171875
26.65,1721466984.1875
25.15,1721466984.203125
23.04,1721466984.21875
20.43,1721466984.234375
17.5,1721466984.25
14.41,1721466984.265625
11.13,1721466984.28125
7.55,1721466984.296875
3.47,1721466984.3125
-1.23,1721466984.328125
-6.45,1721466984.34375
-11.96,1721466984.359375
-17.42,1721466984.375
-22.58,1721466984.390625
-27.37,1721466984.40625
-31.91,1721466984.421875
-36.58,1721466984.4375
-41.83,1721466984.453125
-48.15,1721466984.46875
-55.67,1721466984.484375
-63.93,1721466984.5
-71.63,1721466984.515625
-76.8,1721466984.53125
-77.34,1721466984.546875
-71.82,1721466984.5625
-60.05,1721466984.578125
-43.3,1721466984.59375
-23.86,1721466984.609375
-4.27,1721466984.625
13.52,1721466984.640625
28.49,1721466984.65625
40.55,1721466984.671875
50.07,1721466984.6875
57.44,1721466984.703125
62.85,1721466984.71875
66.26,1721466984.734375
67.62,1721466984.75
66.99,1721466984.765625
64.69,1721466984.78125
61.17,1721466984.796875
56.93,1721466984.8125
52.35,1721466984.828125
47.72,1721466984.84375
43.23,1721466984.859375
39.06,1721466984.875
35.5,1721466984.890625
32.86,1721466984.90625
31.36,1721466984.921875
30.91,1721466984.9375
31.07,1721466984.953125
31.05,1721466984.96875
30.06,1721466984.984375
27.62,1721466985.0
23.83,1721466985.015625
19.26,1721466985.03125
14.68,1721466985.046875
10.65,1721466985.0625
7.26,1721466985.078125
4.08,1721466985.09375
0.47,1721466985.109375
-4.15,1721466985.125
-10.0,1721466985.140625
-16.85,1721466985.15625
-24.19,1721466985.171875
-31.35,1721466985.1875
-37.77,1721466985.203125
-43.18,1721466985.21875
-47.56,1721466985.234375
-51.26,1721466985.25
-54.84,1721466985.265625
-59.02,1721466985.28125
-64.46,1721466985.296875
-71.34,1721466985.3125
-79.08,1721466985.328125
-86.2,1721466985.34375
-90.57,1721466985.359375
-90.1,1721466985.375
-83.54,1721466985.390625
-70.99,1721466985.40625
-53.9,1721466985.421875
-34.53,1721466985.4375
-15.17,1721466985.453125
2.57,1721466985.46875
17.94,1721466985.484375
30.83,1721466985.5
41.36,1721466985.515625
49.53,1721466985.53125
55.22,1721466985.546875
58.37,1721466985.5625
59.17,1721466985.578125
58.16,1721466985.59375
56.05,1721466985.609375
53.48,1721466985.625
50.92,1721466985.640625
48.57,1721466985.65625
46.45,1721466985.671875
44.48,1721466985.6875
42.59,1721466985.703125
40.8,1721466985.71875
39.19,1721466985.734375
37.96,1721466985.75
37.25,1721466985.765625
37.12,1721466985.78125
37.36,1721466985.796875
37.56,1721466985.8125
37.2,1721466985.828125
35.81,1721466985.84375
33.15,1721466985.859375
29.33,1721466985.875
24.78,1721466985.890625
20.0,1721466985.90625
15.43,1721466985.921875
11.23,1721466985.9375
7.24,1721466985.953125
3.07,1721466985.96875
-1.65,1721466985.984375
-7.13,1721466986.0
-13.22,1721466986.015625
-19.5,1721466986.03125
-25.46,1721466986.046875
-30.66,1721466986.0625
-34.98,1721466986.078125
-38.56,1721466986.09375
-41.78,1721466986.109375
-45.07,1721466986.125
-48.87,1721466986.140625
-53.6,1721466986.15625
-59.6,1721466986.171875
-66.84,1721466986.1875
-74.73,1721466986.203125
-81.87,1721466986.21875
-86.27,1721466986.234375
-85.91,1721466986.25
-79.5,1721466986.265625
-67.09,1721466986.28125
-50.15,1721466986.296875
-31.04,1721466986.3125
-12.16,1721466986.328125
4.75,1721466986.34375
18.99,1721466986.359375
30.58,1721466986.375
39.81,1721466986.390625
46.81,1721466986.40625
51.46,1721466986.421875
53.59,1721466986.4375
53.32,1721466986.453125
51.16,1721466986.46875
47.95,1721466986.484375
44.53,1721466986.5
41.48,1721466986.515625
38.99,1721466986.53125
36.98,1721466986.546875
35.22,1721466986.5625
33.58,1721466986.578125
32.1,1721466986.59375
30.94,1721466986.609375
30.31,1721466986.625
30.38,1721466986.640625
31.1,1721466986.65625
32.18,1721466986.671875
33.09,1721466986.6875
33.16,1721466986.703125
31.85,1721466986.71875
28.88,1721466986.734375
24.45,1721466986.75
19.19,1721466986.765625
13.89,1721466986.78125
9.17,1721466986.796875
5.27,1721466986.8125
1.93,1721466986.828125
-1.46,1721466986.84375
-5.47,1721466986.859375
-10.37,1721466986.875
-16.04,1721466986.890625
-21.97,1721466986.90625
-27.58,1721466986.921875
-32.38,1721466986.9375
-36.2,1721466986.953125
-39.19,1721466986.96875
-41.75,1721466986.984375
-44.47,1721466987.0
-48.08,1721466987.015625
-53.24,1721466987.03125
-60.24,1721466987.046875
-68.71,1721466987.0625
-77.34,1721466987.078125
-84.01,1721466987.09375
-86.38,1721466987.109375
-82.63,1721466987.125
-72.24,1721466987.140625
-56.22,1721466987.15625
-36.81,1721466987.171875
-16.62,1721466987.1875
2.08,1721466987.203125
17.98,1721466987.21875
30.66,1721466987.234375
40.3,1721466987.25
47.21,1721466987.265625
51.62,1721466987.28125
53.7,1721466987.296875
53.7,1721466987.3125
52.07,1721466987.328125
49.49,1721466987.34375
46.64,1721466987.359375
44.03,1721466987.375
41.88,1721466987.390625
40.15,1721466987.40625
38.67,1721466987.421875
37.35,1721466987.4375
36.25,1721466987.453125
35.57,1721466987.46875
35.5,1721466987.484375
36.09,1721466987.5
37.1,1721466987.515625
38.07,1721466987.53125
38.46,1721466987.546875
37.82,1721466987.5625
35.97,1721466987.578125
33.06,1721466987.59375
29.45,1721466987.609375
25.52,1721466987.625
21.53,1721466987.640625
17.53,1721466987.65625
13.41,1721466987.671875
9.09,1721466987.6875
4.57,1721466987.703125
-0.04,1721466987.71875
-4.63,1721466987.734375
-9.19,1721466987.75
-13.87,1721466987.765625
-18.82,1721466987.78125
-24.11,1721466987.796875
-29.58,1721466987.8125
-34.83,1721466987.828125
-39.37,1721466987.84375
-42.87,1721466987.859375
-45.35,1721466987.875
-47.26,1721466987.890625
-49.43,1721466987.90625
-52.77,1721466987.921875
-57.99,1721466987.9375
-65.16,1721466987.953125
-73.43,1721466987.96875
-81.11,1721466987.984375
-85.99,1721466988.0
-86.0,1721466988.015625
-79.97,1721466988.03125
-68.01,1721466988.046875
-51.54,1721466988.0625
-32.76,1721466988.078125
-13.9,1721466988.09375
3.33,1721466988.109375
18.05,1721466988.125
30.07,1721466988.140625
39.53,1721466988.15625
46.6,1721466988.171875
51.38,1721466988.1875
54.0,1721466988.203125
54.73,1721466988.21875
54.01,1721466988.234375
52.35,1721466988.25
50.22,1721466988.265625
48.0,1721466988.28125
45.91,1721466988.296875
44.08,1721466988.3125
42.54,1721466988.328125
41.24,1721466988.34375
40.06,1721466988.359375
38.9,1721466988.375
37.75,1721466988.390625
36.73,1721466988.40625
35.95,1721466988.421875
35.5,1721466988.4375
35.22,1721466988.453125
34.77,1721466988.46875
33.75,1721466988.484375
31.85,1721466988.5
29.02,1721466988.515625
25.5,1721466988.53125
21.66,1721466988.546875
17.9,1721466988.5625
14.39,1721466988.578125
11.09,1721466988.59375
7.74,1721466988.609375
4.03,1721466988.625
-0.29,1721466988.640625
-5.23,1721466988.65625
-10.57,1721466988.671875
-15.96,1721466988.6875
-21.07,1721466988.703125
-25.69,1721466988.71875
-29.78,1721466988.734375
-33.5,1721466988.75
-37.09,1721466988.765625
-40.82,1721466988.78125
-45.03,1721466988.796875
-50.02,1721466988.8125
-56.02,1721466988.828125
-62.84,1721466988.84375
-69.7,1721466988.859375
-75.12,1721466988.875
-77.22,1721466988.890625
-74.3,1721466988.90625
-65.54,1721466988.921875
-51.38,1721466988.9375
-33.51,1721466988.953125
-14.24,1721466988.96875
4.2,1721466988.984375
20.29,1721466989.0
33.36,1721466989.015625
43.41,1721466989.03125
50.69,1721466989.046875
55.4,1721466989.0625
57.6,1721466989.078125
57.36,1721466989.09375
55.0,1721466989.109375
51.11,1721466989.125
46.4,1721466989.140625
41.6,1721466989.15625
37.18,1721466989.171875
33.37,1721466989.1875
30.2,1721466989.203125
27.67,1721466989.21875
25.8,1721466989.234375
24.63,1721466989.25
24.16,1721466989.265625
24.28,1721466989.28125
24.7,1721466989.296875
24.96,1721466989.3125
24.61,1721466989.328125
23.23,1721466989.34375
20.67,1721466989.359375
17.09,1721466989.375
12.87,1721466989.390625
8.48,1721466989.40625
4.29,1721466989.421875
0.35,1721466989.4375
-3.53,1721466989.453125
-7.71,1721466989.46875
-12.5,1721466989.484375
-17.93,1721466989.5
-23.74,1721466989.515625
-29.43,1721466989.53125
-34.52,1721466989.546875
-38.69,1721466989.5625
-42.01,1721466989.578125
-44.88,1721466989.59375
-48.03,1721466989.609375
-52.31,1721466989.625
-58.33,1721466989.640625
-66.17,1721466989.65625
-74.96,1721466989.671875
-82.94,1721466989.6875
-87.74,1721466989.703125
-87.2,1721466989.71875
-80.12,1721466989.734375
-66.81,1721466989.75
-48.98,1721466989.765625
-29.13,1721466989.78125
-9.69,1721466989.796875
7.64,1721466989.8125
22.12,1721466989.828125
33.79,1721466989.84375
42.91,1721466989.859375
49.69,1721466989.875
54.1,1721466989.890625
56.05,1721466989.90625
55.64,1721466989.921875
53.32,1721466989.9375
49.82,1721466989.953125
45.95,1721466989.96875
42.41,1721466989.984375
39.56,1721466990.0
37.44,1721466990.015625
35.86,1721466990.03125
34.53,1721466990.046875
33.28,1721466990.0625
32.11,1721466990.078125
31.18,1721466990.09375
30.63,1721466990.109375
30.45,1721466990.125
30.45,1721466990.140625
30.2,1721466990.15625
29.23,1721466990.171875
27.18,1721466990.1875
23.94,1721466990.203125
19.73,1721466990.21875
15.0,1721466990.234375
10.26,1721466990.25
5.85,1721466990.265625
1.81,1721466990.28125
-2.16,1721466990.296875
-6.5,1721466990.3125
-11.61,1721466990.328125
-17.54,1721466990.34375
-23.97,1721466990.359375
-30.32,1721466990.375
-35.98,1721466990.390625
-40.56,1721466990.40625
-44.07,1721466990.421875
-46.85,1721466990.4375
-49.53,1721466990.453125
-52.81,1721466990.46875
-57.38,1721466990.484375
-63.67,1721466990.5
-71.61,1721466990.515625
-80.43,1721466990.53125
-88.49,1721466990.546875
-93.63,1721466990.5625
-93.68,1721466990.578125
-87.28,1721466990.59375
-74.39,1721466990.609375
-56.47,1721466990.625
-35.9,1721466990.640625
-15.28,1721466990.65625
3.37,1721466990.671875
18.98,1721466990.6875
31.37,1721466990.703125
40.82,1721466990.71875
47.7,1721466990.734375
52.29,1721466990.75
54.79,1721466990.765625
55.42,1721466990.78125
54.56,1721466990.796875
52.68,1721466990.8125
50.23,1721466990.828125
47.58,1721466990.84375
44.94,1721466990.859375
42.44,1721466990.875
40.19,1721466990.890625
38.39,1721466990.90625
37.19,1721466990.921875
36.68,1721466990.9375
36.79,1721466990.953125
37.31,1721466990.96875
37.89,1721466990.984375
38.16,1721466991.0
37.81,1721466991.015625
36.6,1721466991.03125
34.43,1721466991.046875
31.36,1721466991.0625
27.54,1721466991.078125
23.23,1721466991.09375
18.81,1721466991.109375
14.6,1721466991.125
10.79,1721466991.140625
7.32,1721466991.15625
3.83,1721466991.171875
-0.18,1721466991.1875
-5.2,1721466991.203125
-11.38,1721466991.21875
-18.46,1721466991.234375
-25.76,1721466991.25
-32.42,1721466991.265625
-37.73,1721466991.28125
-41.41,1721466991.296875
-43.74,1721466991.3125
-45.46,1721466991.328125
-47.5,1721466991.34375
-50.72,1721466991.359375
-55.64,1721466991.375
-62.33,1721466991.390625
-70.26,1721466991.40625
-78.18,1721466991.421875
-84.25,1721466991.4375
-86.38,1721466991.453125
-82.85,1721466991.46875
-72.96,1721466991.484375
-57.51,1721466991.5
-38.51,1721466991.515625
-18.66,1721466991.53125
-0.32,1721466991.546875
15.16,1721466991.5625
27.57,1721466991.578125
37.38,1721466991.59375
45.17,1721466991.609375
51.05,1721466991.625
54.72,1721466991.640625
55.8,1721466991.65625
54.36,1721466991.671875
51.08,1721466991.6875
47.09,1721466991.703125
43.46,1721466991.71875
40.78,1721466991.734375
39.02,1721466991.75
37.68,1721466991.765625
36.26,1721466991.78125
34.58,1721466991.796875
32.9,1721466991.8125
31.65,1721466991.828125
31.17,1721466991.84375
31.43,1721466991.859375
32.0,1721466991.875
32.21,1721466991.890625
31.5,1721466991.90625
29.53,1721466991.921875
26.36,1721466991.9375
22.29,1721466991.953125
17.78,1721466991.96875
13.3,1721466991.984375
9.24,1721466992.0
5.8,1721466992.015625
2.88,1721466992.03125
0.1,1721466992.046875
-3.09,1721466992.0625
-7.15,1721466992.078125
-12.23,1721466992.09375
-18.04,1721466992.109375
-24.01,1721466992.125
-29.53,1721466992.140625
-34.25,1721466992.15625
-38.25,1721466992.171875
-41.94,1721466992.1875
-45.87,1721466992.203125
-50.59,1721466992.21875
-56.54,1721466992.234375
-63.89,1721466992.25
-72.36,1721466992.265625
-81.06,1721466992.28125
-88.31,1721466992.296875
-91.98,1721466992.3125
-90.08,1721466992.328125
-81.58,1721466992.34375
-66.93,1721466992.359375
-48.03,1721466992.375
-27.52,1721466992.390625
-7.86,1721466992.40625
9.43,1721466992.421875
23.95,1721466992.4375
35.96,1721466992.453125
45.83,1721466992.46875
53.56,1721466992.484375
58.81,1721466992.5
61.25,1721466992.515625
60.94,1721466992.53125
58.47,1721466992.546875
54.82,1721466992.5625
50.94,1721466992.578125
47.45,1721466992.59375
44.54,1721466992.609375
42.1,1721466992.625
39.89,1721466992.640625
37.85,1721466992.65625
36.07,1721466992.671875
34.8,1721466992.6875
34.27,1721466992.703125
34.56,1721466992.71875
35.43,1721466992.734375
36.39,1721466992.75
36.74,1721466992.765625
35.84,1721466992.78125
33.34,1721466992.796875
29.41,1721466992.8125
24.66,1721466992.828125
19.96,1721466992.84375
16.06,1721466992.859375
13.24,1721466992.875
11.19,1721466992.890625
9.17,1721466992.90625
6.36,1721466992.921875
2.25,1721466992.9375
-3.15,1721466992.953125
-9.31,1721466992.96875
-15.46,1721466992.984375
-20.89,1721466993.0
-25.18,1721466993.015625
-28.39,1721466993.03125
-30.94,1721466993.046875
-33.55,1721466993.0625
-37.03,1721466993.078125
-42.16,1721466993.09375
-49.5,1721466993.109375
-59.18,1721466993.125
-70.56,1721466993.140625
-82.11,1721466993.15625
-91.53,1721466993.171875
-96.26,1721466993.1875
-94.31,1721466993.203125
-84.98,1721466993.21875
-69.19,1721466993.234375
-49.25,1721466993.25
-27.96,1721466993.265625
-7.86,1721466993.28125
9.5,1721466993.296875
23.59,1721466993.3125
34.61,1721466993.328125
42.97,1721466993.34375
48.91,1721466993.359375
52.48,1721466993.375
53.67,1721466993.390625
52.72,1721466993.40625
50.22,1721466993.421875
46.93,1721466993.4375
43.65,1721466993.453125
40.92,1721466993.46875
38.93,1721466993.484375
37.54,1721466993.5
36.52,1721466993.515625
35.67,1721466993.53125
35.06,1721466993.546875
34.85,1721466993.5625
35.23,1721466993.578125
36.06,1721466993.59375
36.93,1721466993.609375
37.21,1721466993.625
36.35,1721466993.640625
34.15,1721466993.65625
30.84,1721466993.671875
26.94,1721466993.6875
23.0,1721466993.703125
19.39,1721466993.71875
16.13,1721466993.734375
13.06,1721466993.75
9.92,1721466993.765625
6.52,1721466993.78125
2.77,1721466993.796875
-1.41,1721466993.8125
-6.12,1721466993.828125
-11.44,1721466993.84375
-17.34,1721466993.859375
-23.61,1721466993.875
-29.82,1721466993.890625
-35.49,1721466993.90625
-40.19,1721466993.921875
-43.82,1721466993.9375
-46.59,1721466993.953125
-49.1,1721466993.96875
-52.15,1721466993.984375
-56.55,1721466994.0
-62.81,1721466994.015625
-70.85,1721466994.03125
-79.72,1721466994.046875
-87.58,1721466994.0625
-92.14,1721466994.078125
-91.31,1721466994.09375
-83.94,1721466994.109375
-70.33,1721466994.125
-52.19,1721466994.140625
-32.05,1721466994.15625
-12.49,1721466994.171875
4.6,1721466994.1875
18.33,1721466994.203125
28.65,1721466994.21875
35.93,1721466994.234375
40.58,1721466994.25
42.93,1721466994.265625
43.21,1721466994.28125
41.79,1721466994.296875
39.17,1721466994.3125
35.93,1721466994.328125
32.6,1721466994.34375
29.52,1721466994.359375
26.86,1721466994.375
24.72,1721466994.390625
23.16,1721466994.40625
22.28,1721466994.421875
22.14,1721466994.4375
22.65,1721466994.453125
23.55,1721466994.46875
24.38,1721466994.484375
24.69,1721466994.5
24.15,1721466994.515625
22.69,1721466994.53125
20.45,1721466994.546875
17.72,1721466994.5625
14.7,1721466994.578125
11.44,1721466994.59375
7.8,1721466994.609375
3.55,1721466994.625
-1.41,1721466994.640625
-6.99,1721466994.65625
-12.79,1721466994.671875
-18.39,1721466994.6875
-23.42,1721466994.703125
-27.84,1721466994.71875
-31.89,1721466994.734375
-36.06,1721466994.75
-40.89,1721466994.765625
-46.77,1721466994.78125
-53.8,1721466994.796875
-61.55,1721466994.8125
-68.95,1721466994.828125
-74.37,1721466994.84375
-75.94,1721466994.859375
-72.15,1721466994.875
-62.43,1721466994.890625
-47.53,1721466994.90625
-29.33,1721466994.921875
-10.26,1721466994.9375
7.52,1721466994.953125
22.65,1721466994.96875
34.78,1721466994.984375
44.2,1721466995.0
51.41,1721466995.015625
56.71,1721466995.03125
60.12,1721466995.046875
61.62,1721466995.0625
61.35,1721466995.078125
59.79,1721466995.09375
57.61,1721466995.109375
55.42,1721466995.125
53.59,1721466995.140625
52.22,1721466995.15625
51.17,1721466995.171875
50.35,1721466995.1875
49.79,1721466995.203125
49.65,1721466995.21875
50.05,1721466995.234375
50.99,1721466995.25
52.16,1721466995.265625
53.09,1721466995.28125
53.28,1721466995.296875
52.41,1721466995.3125
50.39,1721466995.328125
47.37,1721466995.34375
43.56,1721466995.359375
39.18,1721466995.375
34.4,1721466995.390625
29.35,1721466995.40625
24.07,1721466995.421875
18.45,1721466995.4375
12.09,1721466995.453125
4.27,1721466995.46875
-5.95,1721466995.484375
-19.41,1721466995.5
-36.48,1721466995.515625
-56.74,1721466995.53125
-78.99,1721466995.546875
-101.55,1721466995.5625
-122.66,1721466995.578125
-140.84,1721466995.59375
-154.94,1721466995.609375
-163.97,1721466995.625
-166.98,1721466995.640625
-163.1,1721466995.65625
-151.95,1721466995.671875
-134.07,1721466995.6875
-111.04,1721466995.703125
-85.3,1721466995.71875
-59.43,1721466995.734375
-35.52,1721466995.75
-14.74,1721466995.765625
2.65,1721466995.78125
16.89,1721466995.796875
28.32,1721466995.8125
37.12,1721466995.828125
43.35,1721466995.84375
47.14,1721466995.859375
48.82,1721466995.875
48.93,1721466995.890625
48.12,1721466995.90625
46.99,1721466995.921875
45.93,1721466995.9375
45.2,1721466995.953125
44.85,1721466995.96875
44.79,1721466995.984375
44.86,1721466996.0
44.84,1721466996.015625
44.51,1721466996.03125
43.76,1721466996.046875
42.57,1721466996.0625
40.95,1721466996.078125
38.93,1721466996.09375
36.47,1721466996.109375
33.54,1721466996.125
30.14,1721466996.140625
26.38,1721466996.15625
22.45,1721466996.171875
18.48,1721466996.1875
14.47,1721466996.203125
10.27,1721466996.21875
5.6,1721466996.234375
0.26,1721466996.25
-5.78,1721466996.265625
-12.25,1721466996.28125
-18.74,1721466996.296875
-24.8,1721466996.3125
-30.17,1721466996.328125
-34.84,1721466996.34375
-39.08,1721466996.359375
-43.38,1721466996.375
-48.36,1721466996.390625
-54.6,1721466996.40625
-62.44,1721466996.421875
-71.62,1721466996.4375
-81.09,1721466996.453125
-89.07,1721466996.46875
-93.38,1721466996.484375
-92.16,1721466996.5
-84.52,1721466996.515625
-70.84,1721466996.53125
-52.71,1721466996.546875
-32.35,1721466996.5625
-11.95,1721466996.578125
6.84,1721466996.59375
23.15,1721466996.609375
36.68,1721466996.625
47.48,1721466996.640625
55.66,1721466996.65625
61.37,1721466996.671875
64.76,1721466996.6875
66.11,1721466996.703125
65.83,1721466996.71875
64.43,1721466996.734375
62.47,1721466996.75
60.42,1721466996.765625
58.66,1721466996.78125
57.38,1721466996.796875
56.59,1721466996.8125
56.21,1721466996.828125
56.1,1721466996.84375
56.21,1721466996.859375
56.51,1721466996.875
57.03,1721466996.890625
57.72,1721466996.90625
58.41,1721466996.921875
58.87,1721466996.9375
58.81,1721466996.953125
58.07,1721466996.96875
56.63,1721466996.984375
54.65,1721466997.0
52.37,1721466997.015625
50.01,1721466997.03125
47.68,1721466997.046875
45.38,1721466997.0625
43.13,1721466997.078125
41.0,1721466997.09375
39.25,1721466997.109375
38.14,1721466997.125
37.87,1721466997.140625
38.3,1721466997.15625
38.95,1721466997.171875
38.99,1721466997.1875
37.39,1721466997.203125
33.17,1721466997.21875
25.62,1721466997.234375
14.61,1721466997.25
0.64,1721466997.265625
-15.1,1721466997.28125
-30.91,1721466997.296875
-44.82,1721466997.3125
-55.01,1721466997.328125
-60.08,1721466997.34375
-59.32,1721466997.359375
-52.82,1721466997.375
-41.42,1721466997.390625
-26.62,1721466997.40625
-10.48,1721466997.421875
4.7,1721466997.4375
16.66,1721466997.453125
23.73,1721466997.46875
25.14,1721466997.484375
21.25,1721466997.5
13.38,1721466997.515625
3.36,1721466997.53125
-6.98,1721466997.546875
-16.19,1721466997.5625
-23.37,1721466997.578125
-28.18,1721466997.59375
-30.65,1721466997.609375
-31.1,1721466997.625
-29.99,1721466997.640625
-27.91,1721466997.65625
-25.41,1721466997.671875
-22.91,1721466997.6875
-20.66,1721466997.703125
-18.69,1721466997.71875
-17.04,1721466997.734375
-15.86,1721466997.75
-15.37,1721466997.765625
-15.84,1721466997.78125
-17.32,1721466997.796875
-19.64,1721466997.8125
-22.36,1721466997.828125
-25.01,1721466997.84375
-27.31,1721466997.859375
-29.3,1721466997.875
-31.3,1721466997.890625
-33.72,1721466997.90625
-36.91,1721466997.921875
-40.9,1721466997.9375
-45.47,1721466997.953125
-50.23,1721466997.96875
-54.81,1721466997.984375
-59.02,1721466998.0
-62.85,1721466998.015625
-66.47,1721466998.03125
-70.16,1721466998.046875
-74.3,1721466998.0625
-79.32,1721466998.078125
-85.45,1721466998.09375
-92.5,1721466998.109375
-99.53,1721466998.125
-104.8,1721466998.140625
-106.22,1721466998.15625
-101.96,1721466998.171875
-91.28,1721466998.1875
-74.84,1721466998.203125
-54.51,1721466998.21875
-32.69,1721466998.234375
-11.55,1721466998.25
7.49,1721466998.265625
23.79,1721466998.28125
37.24,1721466998.296875
47.85,1721466998.3125
55.57,1721466998.328125
60.39,1721466998.34375
62.46,1721466998.359375
62.23,1721466998.375
60.41,1721466998.390625
57.77,1721466998.40625
55.0,1721466998.421875
52.52,1721466998.4375
50.47,1721466998.453125
48.82,1721466998.46875
47.48,1721466998.484375
46.4,1721466998.5
45.61,1721466998.515625
45.14,1721466998.53125
44.9,1721466998.546875
44.66,1721466998.5625
44.04,1721466998.578125
42.68,1721466998.59375
40.41,1721466998.609375
37.36,1721466998.625
33.86,1721466998.640625
30.24,1721466998.65625
26.65,1721466998.671875
22.93,1721466998.6875
18.75,1721466998.703125
13.8,1721466998.71875
8.03,1721466998.734375
1.77,1721466998.75
-4.43,1721466998.765625
-9.94,1721466998.78125
-14.34,1721466998.796875
-17.55,1721466998.8125
-19.89,1721466998.828125
-21.92,1721466998.84375
-24.38,1721466998.859375
-27.96,1721466998.875
-33.07,1721466998.890625
-39.58,1721466998.90625
-46.58,1721466998.921875
-52.37,1721466998.9375
-54.79,1721466998.953125
-51.79,1721466998.96875
-42.12,1721466998.984375
-25.93,1721466999.0
-4.7,1721466999.015625
19.16,1721466999.03125
43.03,1721466999.046875
64.8,1721466999.0625
83.21,1721466999.078125
97.78,1721466999.09375
108.43,1721466999.109375
115.1,1721466999.125
117.55,1721466999.140625
115.56,1721466999.15625
109.11,1721466999.171875
98.7,1721466999.1875
85.41,1721466999.203125
70.64,1721466999.21875
55.83,1721466999.234375
42.15,1721466999.25
30.18,1721466999.265625
20.02,1721466999.28125
11.36,1721466999.296875
3.79,1721466999.3125
-3.06,1721466999.328125
-9.36,1721466999.34375
-15.13,1721466999.359375
-20.32,1721466999.375
-24.91,1721466999.390625
-28.98,1721466999.40625
-32.7,1721466999.421875
-36.17,1721466999.4375
-39.36,1721466999.453125
-42.1,1721466999.46875
-44.18,1721466999.484375
-45.57,1721466999.5
-46.61,1721466999.515625
-47.84,1721466999.53125
-49.84,1721466999.546875
-52.89,1721466999.5625
-56.75,1721466999.578125
-60.76,1721466999.59375
-64.25,1721466999.609375
-66.79,1721466999.625
-68.52,1721466999.640625
-70.09,1721466999.65625
-72.37,1721466999.671875
-76.16,1721466999.6875
-81.87,1721466999.703125
-89.3,1721466999.71875
-97.47,1721466999.734375
-104.72,1721466999.75
-108.96,1721466999.765625
-108.17,1721466999.78125
-101.01,1721466999.796875
-87.31,1721466999.8125
-68.23,1721466999.828125
-45.88,1721466999.84375
-22.76,1721466999.859375
-0.97,1721466999.875
18.16,1721466999.890625
34.14,1721466999.90625
46.97,1721466999.921875
56.81,1721466999.9375
63.72,1721466999.953125
67.65,1721466999.96875
68.7,1721466999.984375
67.27,1721467000.0
64.07,1721467000.015625
60.0,1721467000.03125
55.88,1721467000.046875
52.2,1721467000.0625
49.07,1721467000.078125
46.38,1721467000.09375
44.03,1721467000.109375
42.05,1721467000.125
40.63,1721467000.140625
39.92,1721467000.15625
39.8,1721467000.171875
39.86,1721467000.1875
39.43,1721467000.203125
37.9,1721467000.21875
34.99,1721467000.234375
30.83,1721467000.25
25.92,1721467000.265625
20.83,1721467000.28125
15.95,1721467000.296875
11.32,1721467000.3125
6.67,1721467000.328125
1.62,1721467000.34375
-4.13,1721467000.359375
-10.56,1721467000.375
-17.36,1721467000.390625
-24.02,1721467000.40625
-30.04,1721467000.421875
-35.13,1721467000.4375
-39.31,1721467000.453125
-42.95,1721467000.46875
-46.74,1721467000.484375
-51.52,1721467000.5
-58.02,1721467000.515625
-66.58,1721467000.53125
-76.71,1721467000.546875
-86.95,1721467000.5625
-95.03,1721467000.578125
-98.42,1721467000.59375
-95.09,1721467000.609375
-84.27,1721467000.625
-66.73,1721467000.640625
-44.48,1721467000.65625
-20.11,1721467000.671875
4.08,1721467000.6875
26.51,1721467000.703125
46.47,1721467000.71875
63.74,1721467000.734375
78.25,1721467000.75
89.81,1721467000.765625
98.18,1721467000.78125
103.36,1721467000.796875
105.87,1721467000.8125
106.69,1721467000.828125
107.05,1721467000.84375
107.98,1721467000.859375
109.91,1721467000.875
112.52,1721467000.890625
114.93,1721467000.90625
116.13,1721467000.921875
115.37,1721467000.9375
112.45,1721467000.953125
107.63,1721467000.96875
101.34,1721467000.984375
93.89,1721467001.0
85.29,1721467001.015625
75.29,1721467001.03125
63.65,1721467001.046875
50.44,1721467001.0625
36.12,1721467001.078125
21.47,1721467001.09375
7.35,1721467001.109375
-5.66,1721467001.125
-17.37,1721467001.140625
-28.05,1721467001.15625
-38.25,1721467001.171875
-48.49,1721467001.1875
-59.01,1721467001.203125
-69.62,1721467001.21875
-79.69,1721467001.234375
-88.46,1721467001.25
-95.27,1721467001.265625
-99.91,1721467001.28125
-102.67,1721467001.296875
-104.32,1721467001.3125
-105.88,1721467001.328125
-108.36,1721467001.34375
-112.49,1721467001.359375
-118.39,1721467001.375
-125.33,1721467001.390625
-131.68,1721467001.40625
-135.13,1721467001.421875
-133.28,1721467001.4375
-124.44,1721467001.453125
-108.27,1721467001.46875
-86.07,1721467001.484375
-60.31,1721467001.5
-33.89,1721467001.515625
-9.23,1721467001.53125
12.24,1721467001.546875
30.12,1721467001.5625
44.62,1721467001.578125
56.03,1721467001.59375
64.44,1721467001.609375
69.71,1721467001.625
71.86,1721467001.640625
71.27,1721467001.65625
68.81,1721467001.671875
65.56,1721467001.6875
62.47,1721467001.703125
60.05,1721467001.71875
58.21,1721467001.734375
56.48,1721467001.75
54.35,1721467001.765625
51.6,1721467001.78125
48.49,1721467001.796875
45.61,1721467001.8125
43.57,1721467001.828125
42.61,1721467001.84375
42.41,1721467001.859375
42.19,1721467001.875
41.02,1721467001.890625
38.25,1721467001.90625
33.81,1721467001.921875
28.2,1721467001.9375
22.28,1721467001.953125
16.81,1721467001.96875
12.14,1721467001.984375
8.09,1721467002.0
4.08,1721467002.015625
-0.54,1721467002.03125
-6.07,1721467002.046875
-12.37,1721467002.0625
-18.86,1721467002.078125
-24.87,1721467002.09375
-29.9,1721467002.109375
-33.84,1721467002.125
-37.07,1721467002.140625
-40.19,1721467002.15625
-43.95,1721467002.171875
-48.96,1721467002.1875
-55.56,1721467002.203125
-63.6,1721467002.21875
-72.34,1721467002.234375
-80.34,1721467002.25
-85.63,1721467002.265625
-86.16,1721467002.28125
-80.41,1721467002.296875
-67.93,1721467002.3125
-49.63,1721467002.328125
-27.48,1721467002.34375
-4.0,1721467002.359375
18.51,1721467002.375
38.44,1721467002.390625
55.02,1721467002.40625
68.1,1721467002.421875
77.84,1721467002.4375
84.37,1721467002.453125
87.82,1721467002.46875
88.39,1721467002.484375
86.49,1721467002.5
82.85,1721467002.515625
78.36,1721467002.53125
73.87,1721467002.546875
69.96,1721467002.5625
66.88,1721467002.578125
64.59,1721467002.59375
62.95,1721467002.609375
61.89,1721467002.625
61.36,1721467002.640625
61.17,1721467002.65625
60.9,1721467002.671875
59.67,1721467002.6875
56.46,1721467002.703125
50.3,1721467002.71875
40.74,1721467002.734375
28.02,1721467002.75
13.09,1721467002.765625
-2.56,1721467002.78125
-17.31,1721467002.796875
-29.79,1721467002.8125
-39.16,1721467002.828125
-45.31,1721467002.84375
-48.85,1721467002.859375
-50.88,1721467002.875
-52.66,1721467002.890625
-55.17,1721467002.90625
-58.83,1721467002.921875
-63.3,1721467002.9375
-67.82,1721467002.953125
-71.48,1721467002.96875
-73.69,1721467002.984375
-74.45,1721467003.0
-74.32,1721467003.015625
-74.28,1721467003.03125
-75.43,1721467003.046875
-78.74,1721467003.0625
-84.66,1721467003.078125
-92.93,1721467003.09375
-102.33,1721467003.109375
-110.75,1721467003.125
-115.56,1721467003.140625
-114.31,1721467003.15625
-105.55,1721467003.171875
-89.36,1721467003.1875
-67.4,1721467003.203125
-42.32,1721467003.21875
-17.02,1721467003.234375
6.2,1721467003.25
25.96,1721467003.265625
41.81,1721467003.28125
53.9,1721467003.296875
62.55,1721467003.3125
68.08,1721467003.328125
70.82,1721467003.34375
71.15,1721467003.359375
69.66,1721467003.375
67.06,1721467003.390625
64.15,1721467003.40625
61.54,1721467003.421875
59.54,1721467003.4375
58.14,1721467003.453125
57.03,1721467003.46875
55.85,1721467003.484375
54.35,1721467003.5
52.57,1721467003.515625
50.77,1721467003.53125
49.27,1721467003.546875
48.2,1721467003.5625
47.43,1721467003.578125
46.54,1721467003.59375
45.01,1721467003.609375
42.39,1721467003.625
38.54,1721467003.640625
33.58,1721467003.65625
27.9,1721467003.671875
22.0,1721467003.6875
16.27,1721467003.703125
10.9,1721467003.71875
5.8,1721467003.734375
0.68,1721467003.75
-4.84,1721467003.765625
-10.97,1721467003.78125
-17.64,1721467003.796875
-24.47,1721467003.8125
-30.99,1721467003.828125
-36.73,1721467003.84375
-41.54,1721467003.859375
-45.59,1721467003.875
-49.3,1721467003.890625
-53.27,1721467003.90625
-58.15,1721467003.921875
-64.41,1721467003.9375
-72.23,1721467003.953125
-81.11,1721467003.96875
-89.72,1721467003.984375
-96.02,1721467004.0
-97.67,1721467004.015625
-92.85,1721467004.03125
-80.94,1721467004.046875
-62.89,1721467004.0625
-40.89,1721467004.078125
-17.6,1721467004.09375
4.56,1721467004.109375
24.03,1721467004.125
40.16,1721467004.140625
52.86,1721467004.15625
62.32,1721467004.171875
68.72,1721467004.1875
72.3,1721467004.203125
73.42,1721467004.21875
72.64,1721467004.234375
70.65,1721467004.25
68.13,1721467004.265625
65.61,1721467004.28125
63.48,1721467004.296875
62.03,1721467004.3125
61.51,1721467004.328125
62.12,1721467004.34375
63.88,1721467004.359375
66.55,1721467004.375
69.55,1721467004.390625
72.02,1721467004.40625
73.07,1721467004.421875
72.06,1721467004.4375
68.77,1721467004.453125
63.51,1721467004.46875
56.94,1721467004.484375
49.87,1721467004.5
42.99,1721467004.515625
36.65,1721467004.53125
30.8,1721467004.546875
25.0,1721467004.5625
18.63,1721467004.578125
11.09,1721467004.59375
1.94,1721467004.609375
-8.98,1721467004.625
-21.6,1721467004.640625
-35.69,1721467004.65625
-50.92,1721467004.671875
-66.89,1721467004.6875
-83.1,1721467004.703125
-99.07,1721467004.71875
-114.23,1721467004.734375
-127.92,1721467004.75
-139.1,1721467004.765625
-146.39,1721467004.78125
-148.09,1721467004.796875
-142.77,1721467004.8125
-129.78,1721467004.828125
-109.81,1721467004.84375
-84.89,1721467004.859375
-57.88,1721467004.875
-31.64,1721467004.890625
-8.31,1721467004.90625
11.09,1721467004.921875
26.38,1721467004.9375
37.88,1721467004.953125
45.87,1721467004.96875
50.53,1721467004.984375
52.03,1721467005.0
50.79,1721467005.015625
47.58,1721467005.03125
43.43,1721467005.046875
39.37,1721467005.0625
36.12,1721467005.078125
33.94,1721467005.09375
32.69,1721467005.109375
32.05,1721467005.125
31.68,1721467005.140625
31.46,1721467005.15625
31.43,1721467005.171875
31.68,1721467005.1875
32.09,1721467005.203125
32.32,1721467005.21875
31.78,1721467005.234375
29.95,1721467005.25
26.57,1721467005.265625
21.87,1721467005.28125
16.42,1721467005.296875
10.93,1721467005.3125
5.85,1721467005.328125
1.21,1721467005.34375
-3.39,1721467005.359375
-8.52,1721467005.375
-14.59,1721467005.390625
-21.55,1721467005.40625
-28.93,1721467005.421875
-35.93,1721467005.4375
-41.84,1721467005.453125
-46.33,1721467005.46875
-49.56,1721467005.484375
-52.16,1721467005.5
-55.06,1721467005.515625
-59.25,1721467005.53125
-65.5,1721467005.546875
-74.01,1721467005.5625
-84.04,1721467005.578125
-93.89,1721467005.59375
-101.04,1721467005.609375
-102.92,1721467005.625
-97.72,1721467005.640625
-85.13,1721467005.65625
-66.48,1721467005.671875
