PPG GREEN,time
1735823.0,1721466928.526
1733655.0,1721466928.566
1732994.0,1721466928.606
1734697.0,1721466928.646
1736932.0,1721466928.686
1738139.0,1721466928.726
1738296.0,1721466928.766
1735836.0,1721466928.806
1733147.0,1721466928.846
1735057.0,1721466928.886
1740465.0,1721466928.926
1745364.0,1721466928.966
1749435.0,1721466929.006
1752942.0,1721466929.046
1757477.0,1721466929.086
1762680.0,1721466929.126
1767375.0,1721466929.166
1771946.0,1721466929.206
1774254.0,1721466929.246
1776408.0,1721466929.286
1780357.0,1721466929.326
1783721.0,1721466929.366
1786628.0,1721466929.406
1789633.0,1721466929.446
1792349.0,1721466929.486
1794910.0,1721466929.526
1797254.0,1721466929.566
1799504.0,1721466929.606
1804079.0,1721466929.686
1801880.0,1721466929.646
1806387.0,1721466929.726
1808748.0,1721466929.766
1813705.0,1721466929.846
1811382.0,1721466929.806
1816347.0,1721466929.886
1819126.0,1721466929.926
1821924.0,1721466929.966
1824349.0,1721466930.006
1826625.0,1721466930.046
1827025.0,1721466930.086
1826675.0,1721466930.126
1826951.0,1721466930.166
1827798.0,1721466930.206
1830732.0,1721466930.286
1829232.0,1721466930.246
1832225.0,1721466930.326
1834000.0,1721466930.366
1838628.0,1721466930.486
1836817.0,1721466930.446
1835181.0,1721466930.406
1840580.0,1721466930.526
1844630.0,1721466930.606
1842308.0,1721466930.566
1849570.0,1721466930.686
1846923.0,1721466930.646
1852021.0,1721466930.726
1853618.0,1721466930.766
1855985.0,1721466930.806
1858374.0,1721466930.846
1860630.0,1721466930.886
1863652.0,1721466930.966
1862575.0,1721466930.926
1862223.0,1721466931.006
1861128.0,1721466931.046
1861028.0,1721466931.086
1861029.0,1721466931.126
1861863.0,1721466931.166
1862726.0,1721466931.206
1863936.0,1721466931.246
1865719.0,1721466931.326
1864712.0,1721466931.286
1866525.0,1721466931.366
1869949.0,1721466931.486
1871409.0,1721466931.526
1867753.0,1721466931.406
1872818.0,1721466931.566
1868691.0,1721466931.446
1874923.0,1721466931.606
1870428.0,1721466931.726
1874203.0,1721466931.646
1872696.0,1721466931.686
1869386.0,1721466931.766
1870092.0,1721466931.806
1872257.0,1721466931.846
1867697.0,1721466931.966
1871507.0,1721466931.886
1868112.0,1721466931.926
1868438.0,1721466932.006
1868513.0,1721466932.046
1869570.0,1721466932.086
1870736.0,1721466932.126
1870461.0,1721466932.166
1870205.0,1721466932.206
1873511.0,1721466932.286
1870866.0,1721466932.246
1891287.0,1721466932.406
1881972.0,1721466932.366
1875483.0,1721466932.326
1901936.0,1721466932.446
1916437.0,1721466932.526
1909704.0,1721466932.486
1923816.0,1721466932.566
1927998.0,1721466932.606
1927041.0,1721466932.646
1924987.0,1721466932.686
1922652.0,1721466932.726
1921585.0,1721466932.766
1918806.0,1721466932.806
1910381.0,1721466932.846
1905410.0,1721466932.886
1898091.0,1721466932.966
1901758.0,1721466932.926
1897350.0,1721466933.046
1896786.0,1721466933.006
1897881.0,1721466933.126
1897367.0,1721466933.166
1897733.0,1721466933.086
1896948.0,1721466933.206
1897545.0,1721466933.246
1897729.0,1721466933.286
1898573.0,1721466933.326
1899682.0,1721466933.366
1900437.0,1721466933.406
1901111.0,1721466933.446
1901826.0,1721466933.526
1902095.0,1721466933.566
1901498.0,1721466933.606
1901471.0,1721466933.486
1898655.0,1721466933.646
1895557.0,1721466933.726
1896693.0,1721466933.686
1895383.0,1721466933.766
1895997.0,1721466933.806
1897041.0,1721466933.966
1896928.0,1721466933.886
1896836.0,1721466934.006
1897054.0,1721466933.846
1896943.0,1721466933.926
1898245.0,1721466934.086
1897330.0,1721466934.046
1899046.0,1721466934.126
1900604.0,1721466934.166
1905688.0,1721466934.286
1904934.0,1721466934.246
1902650.0,1721466934.206
1904780.0,1721466934.326
1902594.0,1721466934.366
1900086.0,1721466934.406
1903712.0,1721466934.486
1900951.0,1721466934.446
1903659.0,1721466934.566
1904654.0,1721466934.526
1905677.0,1721466934.606
1907721.0,1721466934.686
1908153.0,1721466934.646
1908353.0,1721466934.726
1908112.0,1721466934.766
1913151.0,1721466934.846
1910038.0,1721466934.806
1912374.0,1721466934.886
1911117.0,1721466934.926
1908666.0,1721466934.966
1900018.0,1721466935.046
1904046.0,1721466935.006
1898648.0,1721466935.086
1898474.0,1721466935.126
1899424.0,1721466935.166
1900574.0,1721466935.206
1902826.0,1721466935.326
1902335.0,1721466935.286
1901483.0,1721466935.246
1903645.0,1721466935.366
1905827.0,1721466935.446
1904946.0,1721466935.406
1907130.0,1721466935.486
1909805.0,1721466935.566
1908503.0,1721466935.526
1908867.0,1721466935.606
1905329.0,1721466935.646
1901963.0,1721466935.686
1899368.0,1721466935.726
1897718.0,1721466935.766
1896969.0,1721466935.806
1897104.0,1721466935.846
1896860.0,1721466935.886
1896513.0,1721466935.966
1896699.0,1721466935.926
1896146.0,1721466936.046
1896156.0,1721466936.006
1896472.0,1721466936.082
1896792.0,1721466936.123
1897247.0,1721466936.163
1897986.0,1721466936.202
1898377.0,1721466936.243
1895888.0,1721466936.284
1890555.0,1721466936.323
1885806.0,1721466936.363
1881607.0,1721466936.404
1878156.0,1721466936.443
1876123.0,1721466936.483
1872855.0,1721466936.563
1874675.0,1721466936.524
1871147.0,1721466936.603
1870532.0,1721466936.645
1869716.0,1721466936.683
1868681.0,1721466936.723
1868213.0,1721466936.764
1867093.0,1721466936.803
1866196.0,1721466936.844
1866221.0,1721466936.885
1866191.0,1721466936.924
1864991.0,1721466937.044
1867556.0,1721466937.005
1866569.0,1721466936.964
1859336.0,1721466937.084
1854381.0,1721466937.125
1844636.0,1721466937.204
1848557.0,1721466937.164
1843424.0,1721466937.246
1843794.0,1721466937.284
1842442.0,1721466937.324
1844082.0,1721466937.365
1843815.0,1721466937.404
1840537.0,1721466937.445
1837608.0,1721466937.486
1834789.0,1721466937.524
1832977.0,1721466937.565
1832466.0,1721466937.606
1834106.0,1721466937.645
1835330.0,1721466937.685
1836257.0,1721466937.726
1837618.0,1721466937.765
1839941.0,1721466937.805
1841936.0,1721466937.847
1843329.0,1721466937.885
1843043.0,1721466937.925
1840184.0,1721466937.966
1833940.0,1721466938.005
1828585.0,1721466938.046
1823351.0,1721466938.087
1819872.0,1721466938.126
1817938.0,1721466938.166
1815605.0,1721466938.207
1813597.0,1721466938.246
1811612.0,1721466938.286
1809646.0,1721466938.327
1807996.0,1721466938.366
1807726.0,1721466938.406
1807048.0,1721466938.448
1807005.0,1721466938.486
1807569.0,1721466938.526
1808400.0,1721466938.567
1808552.0,1721466938.607
1808698.0,1721466938.647
1809541.0,1721466938.688
1810316.0,1721466938.727
1809667.0,1721466938.767
1803269.0,1721466938.848
1800237.0,1721466938.887
1799117.0,1721466938.928
1798667.0,1721466938.967
1798964.0,1721466939.007
1799309.0,1721466939.049
1806851.0,1721466938.808
1799749.0,1721466939.087
1800237.0,1721466939.128
1800534.0,1721466939.169
1801455.0,1721466939.208
1802226.0,1721466939.248
1803166.0,1721466939.289
1804720.0,1721466939.328
1806462.0,1721466939.368
1807673.0,1721466939.409
1809175.0,1721466939.449
1810569.0,1721466939.488
1810581.0,1721466939.529
1807572.0,1721466939.568
1804233.0,1721466939.608
1802166.0,1721466939.65
1801404.0,1721466939.688
1800769.0,1721466939.728
1800829.0,1721466939.77
1801133.0,1721466939.809
1801271.0,1721466939.849
1802059.0,1721466939.89
1802544.0,1721466939.929
1803599.0,1721466939.969
1804856.0,1721466940.01
1806457.0,1721466940.05
1808199.0,1721466940.089
1810104.0,1721466940.13
1811852.0,1721466940.169
1811030.0,1721466940.209
1808180.0,1721466940.251
1806026.0,1721466940.29
1805065.0,1721466940.33
1804658.0,1721466940.366
1805210.0,1721466940.404
1806406.0,1721466940.444
1807305.0,1721466940.485
1807834.0,1721466940.524
1808633.0,1721466940.565
1809678.0,1721466940.606
1810837.0,1721466940.646
1812415.0,1721466940.685
1813621.0,1721466940.725
1815576.0,1721466940.764
1817184.0,1721466940.8
1818913.0,1721466940.841
1820646.0,1721466940.88
1819852.0,1721466940.92
1816572.0,1721466940.961
1813735.0,1721466941.0
1812070.0,1721466941.041
1811073.0,1721466941.081
1811153.0,1721466941.12
1811654.0,1721466941.16
1812132.0,1721466941.201
1812524.0,1721466941.241
1813081.0,1721466941.281
1813408.0,1721466941.322
1813933.0,1721466941.361
1814690.0,1721466941.401
1816009.0,1721466941.443
1817488.0,1721466941.481
1819523.0,1721466941.522
1821949.0,1721466941.564
1825029.0,1721466941.603
1828154.0,1721466941.644
1831960.0,1721466941.685
1834932.0,1721466941.724
1836721.0,1721466941.764
1838681.0,1721466941.806
1840759.0,1721466941.846
1842498.0,1721466941.885
1847338.0,1721466941.925
1851144.0,1721466941.965
1854294.0,1721466942.005
1858927.0,1721466942.046
1859610.0,1721466942.085
1858353.0,1721466942.125
1856115.0,1721466942.166
1854660.0,1721466942.205
1854094.0,1721466942.246
1855001.0,1721466942.286
1855756.0,1721466942.325
1856351.0,1721466942.365
1857078.0,1721466942.406
1857904.0,1721466942.446
1858955.0,1721466942.485
1860244.0,1721466942.526
1861608.0,1721466942.565
1863266.0,1721466942.605
1864197.0,1721466942.646
1862600.0,1721466942.684
1859459.0,1721466942.725
1856931.0,1721466942.766
1855052.0,1721466942.805
1854205.0,1721466942.846
1854183.0,1721466942.887
1853823.0,1721466942.926
1853728.0,1721466942.966
1853366.0,1721466943.008
1853045.0,1721466943.044
1853144.0,1721466943.079
1853078.0,1721466943.12
1853764.0,1721466943.159
1854796.0,1721466943.199
1855143.0,1721466943.241
1856292.0,1721466943.279
1857218.0,1721466943.319
1858345.0,1721466943.36
1859398.0,1721466943.399
1859930.0,1721466943.44
1857538.0,1721466943.481
1853406.0,1721466943.52
1849842.0,1721466943.56
1847289.0,1721466943.601
1846242.0,1721466943.641
1845211.0,1721466943.68
1844657.0,1721466943.721
1844254.0,1721466943.755
1844297.0,1721466943.79
1844877.0,1721466943.829
1845159.0,1721466943.864
1845170.0,1721466943.904
1845194.0,1721466943.946
1845527.0,1721466943.985
1845994.0,1721466944.026
1846674.0,1721466944.066
1847430.0,1721466944.106
1848108.0,1721466944.146
1848108.0,1721466944.179
1849086.0,1721466944.219
1850304.0,1721466944.258
1849485.0,1721466944.299
1845713.0,1721466944.338
1841589.0,1721466944.379
1838841.0,1721466944.42
1837954.0,1721466944.459
1838048.0,1721466944.499
1839021.0,1721466944.54
1840567.0,1721466944.579
1842242.0,1721466944.62
1843844.0,1721466944.66
1845878.0,1721466944.699
1847978.0,1721466944.739
1849270.0,1721466944.78
1849933.0,1721466944.82
1851332.0,1721466944.859
1852521.0,1721466944.902
1854164.0,1721466944.939
1856067.0,1721466944.974
1857798.0,1721466945.016
1859472.0,1721466945.048
1860385.0,1721466945.086
1858422.0,1721466945.127
1855381.0,1721466945.166
1851712.0,1721466945.207
1847978.0,1721466945.248
1846621.0,1721466945.286
1846316.0,1721466945.316
1844830.0,1721466945.357
1844254.0,1721466945.397
1844020.0,1721466945.436
1843339.0,1721466945.478
1842795.0,1721466945.517
1842543.0,1721466945.557
1842788.0,1721466945.599
1843043.0,1721466945.637
1843609.0,1721466945.677
1844036.0,1721466945.718
1845246.0,1721466945.757
1845630.0,1721466945.798
1846555.0,1721466945.838
1845402.0,1721466945.877
1841159.0,1721466945.917
1836877.0,1721466945.959
1833870.0,1721466945.999
1831882.0,1721466946.039
1831050.0,1721466946.075
1830664.0,1721466946.108
1830709.0,1721466946.145
1830046.0,1721466946.187
1829611.0,1721466946.226
1829483.0,1721466946.266
1829678.0,1721466946.307
1829731.0,1721466946.346
1830729.0,1721466946.387
1831583.0,1721466946.428
1831583.0,1721466946.46
1832837.0,1721466946.5
1833842.0,1721466946.541
1835186.0,1721466946.581
1835880.0,1721466946.62
1833267.0,1721466946.661
1828567.0,1721466946.7
1824104.0,1721466946.74
1821575.0,1721466946.782
1819631.0,1721466946.821
1819317.0,1721466946.861
1819014.0,1721466946.902
1818724.0,1721466946.941
1818655.0,1721466946.982
1818245.0,1721466947.022
1817831.0,1721466947.061
1818246.0,1721466947.101
1818628.0,1721466947.142
1819528.0,1721466947.183
1820320.0,1721466947.223
1821169.0,1721466947.264
1822771.0,1721466947.304
1823685.0,1721466947.344
1821033.0,1721466947.386
1816177.0,1721466947.424
1811589.0,1721466947.465
1808755.0,1721466947.507
1806631.0,1721466947.546
1805703.0,1721466947.586
1805234.0,1721466947.624
1804918.0,1721466947.663
1804699.0,1721466947.703
1804037.0,1721466947.745
1803666.0,1721466947.784
1803797.0,1721466947.824
1804060.0,1721466947.865
1805096.0,1721466947.904
1805891.0,1721466947.944
1806982.0,1721466947.986
1807446.0,1721466948.073
1805731.0,1721466948.113
1802434.0,1721466948.154
1798027.0,1721466948.193
1796530.0,1721466948.234
1796320.0,1721466948.274
1797460.0,1721466948.313
1799308.0,1721466948.354
1801325.0,1721466948.395
1805812.0,1721466948.434
1811514.0,1721466948.474
1815432.0,1721466948.516
1821339.0,1721466948.555
1827612.0,1721466948.596
1825541.0,1721466948.637
1822913.0,1721466948.675
1820799.0,1721466948.716
1819937.0,1721466948.757
1820815.0,1721466948.796
1822220.0,1721466948.837
1820662.0,1721466948.874
1813971.0,1721466948.913
1806277.0,1721466948.953
1802646.0,1721466948.994
1801207.0,1721466949.034
1800252.0,1721466949.073
1801558.0,1721466949.114
1801823.0,1721466949.153
1802119.0,1721466949.193
1802492.0,1721466949.235
1803333.0,1721466949.273
1804146.0,1721466949.314
1804586.0,1721466949.355
1806096.0,1721466949.394
1807017.0,1721466949.435
1808061.0,1721466949.475
1809379.0,1721466949.514
1810371.0,1721466949.554
1810993.0,1721466949.596
1807594.0,1721466949.636
1801792.0,1721466949.676
1796794.0,1721466949.717
1794072.0,1721466949.756
1792592.0,1721466949.796
1790935.0,1721466949.838
1789650.0,1721466949.877
1788797.0,1721466949.917
1787257.0,1721466949.958
1785640.0,1721466949.997
1785116.0,1721466950.038
1784807.0,1721466950.08
1784285.0,1721466950.119
1786056.0,1721466950.2
1790248.0,1721466950.32
1791350.0,1721466950.359
1792988.0,1721466950.399
1791472.0,1721466950.441
1786626.0,1721466950.239
1788397.0,1721466950.279
1786163.0,1721466950.479
1780982.0,1721466950.519
1777258.0,1721466950.56
1784973.0,1721466950.159
1774182.0,1721466950.599
1772203.0,1721466950.64
1771384.0,1721466950.68
1770846.0,1721466950.719
1770849.0,1721466950.8
1770539.0,1721466950.76
1772263.0,1721466950.877
1771703.0,1721466950.837
1774038.0,1721466950.957
1776855.0,1721466951.039
1773526.0,1721466950.918
1779147.0,1721466951.118
1777612.0,1721466951.078
1775347.0,1721466950.997
1780808.0,1721466951.159
1782222.0,1721466951.196
1783834.0,1721466951.237
1783184.0,1721466951.278
1777294.0,1721466951.317
1772333.0,1721466951.358
1770440.0,1721466951.391
1769570.0,1721466951.431
1768083.0,1721466951.471
1768389.0,1721466951.512
1768475.0,1721466951.551
1767430.0,1721466951.591
1766758.0,1721466951.633
1766533.0,1721466951.671
1766197.0,1721466951.711
1766483.0,1721466951.752
1767112.0,1721466951.791
1767916.0,1721466951.832
1768578.0,1721466951.872
1769736.0,1721466951.911
1770674.0,1721466951.952
1771030.0,1721466951.993
1768879.0,1721466952.032
1763681.0,1721466952.072
1758573.0,1721466952.114
1754821.0,1721466952.153
1752452.0,1721466952.191
1750979.0,1721466952.233
1750045.0,1721466952.268
1749796.0,1721466952.309
1749401.0,1721466952.343
1748499.0,1721466952.38
1748019.0,1721466952.419
1747512.0,1721466952.459
1746995.0,1721466952.498
1747568.0,1721466952.539
1748092.0,1721466952.58
1748668.0,1721466952.62
1749489.0,1721466952.66
1750309.0,1721466952.703
1751334.0,1721466952.74
1752577.0,1721466952.78
1751792.0,1721466952.822
1746724.0,1721466952.86
1740176.0,1721466952.9
1735001.0,1721466952.941
1730969.0,1721466952.98
1728049.0,1721466953.021
1726761.0,1721466953.061
1725667.0,1721466953.1
1724454.0,1721466953.14
1723224.0,1721466953.182
1722241.0,1721466953.221
1721970.0,1721466953.261
1722004.0,1721466953.302
1722268.0,1721466953.341
1722867.0,1721466953.381
1723330.0,1721466953.424
1724570.0,1721466953.46
1725504.0,1721466953.498
1726417.0,1721466953.54
1727815.0,1721466953.579
1728705.0,1721466953.62
1726021.0,1721466953.661
1720004.0,1721466953.7
1714284.0,1721466953.74
1710072.0,1721466953.782
1707216.0,1721466953.819
1705898.0,1721466953.859
1704918.0,1721466953.9
1704262.0,1721466953.939
1703375.0,1721466953.98
1702801.0,1721466954.021
1703897.0,1721466954.057
1707776.0,1721466954.138
1706466.0,1721466954.097
1710925.0,1721466954.168
1715788.0,1721466954.209
1722142.0,1721466954.249
1727544.0,1721466954.288
1733761.0,1721466954.328
1739390.0,1721466954.369
1745973.0,1721466954.409
1749677.0,1721466954.448
1749767.0,1721466954.489
1746698.0,1721466954.529
1741854.0,1721466954.569
1737819.0,1721466954.61
1736097.0,1721466954.649
1734916.0,1721466954.689
1732673.0,1721466954.73
1730431.0,1721466954.769
1729296.0,1721466954.81
1727641.0,1721466954.843
1726315.0,1721466954.881
1726423.0,1721466954.918
1726577.0,1721466954.959
1726835.0,1721466954.999
1727328.0,1721466955.039
1727860.0,1721466955.08
1728847.0,1721466955.119
1729820.0,1721466955.16
1730148.0,1721466955.202
1727623.0,1721466955.24
1721605.0,1721466955.278
1715483.0,1721466955.32
1710477.0,1721466955.359
1706720.0,1721466955.401
1704763.0,1721466955.441
1703679.0,1721466955.48
1702543.0,1721466955.52
1701122.0,1721466955.561
1699915.0,1721466955.601
1699489.0,1721466955.64
1699241.0,1721466955.682
1699439.0,1721466955.721
1700012.0,1721466955.761
1700950.0,1721466955.803
1701725.0,1721466955.841
1702530.0,1721466955.881
1703882.0,1721466955.922
1705507.0,1721466955.961
1706469.0,1721466956.002
1703928.0,1721466956.042
1698479.0,1721466956.079
1693861.0,1721466956.119
1691247.0,1721466956.16
1689328.0,1721466956.2
1688342.0,1721466956.24
1689973.0,1721466956.281
1692021.0,1721466956.32
1696808.0,1721466956.36
1699259.0,1721466956.402
1706031.0,1721466956.439
1711156.0,1721466956.479
1718188.0,1721466956.52
1721740.0,1721466956.56
1720493.0,1721466956.6
1719720.0,1721466956.641
1719423.0,1721466956.68
1719564.0,1721466956.72
1721459.0,1721466956.761
1723856.0,1721466956.801
1723548.0,1721466956.84
1719615.0,1721466956.881
1713709.0,1721466956.92
1707931.0,1721466956.96
1703517.0,1721466957.002
1700922.0,1721466957.04
1698854.0,1721466957.08
1697224.0,1721466957.122
1695787.0,1721466957.161
1694144.0,1721466957.201
1692488.0,1721466957.242
1691669.0,1721466957.281
1691415.0,1721466957.321
1691695.0,1721466957.362
1692304.0,1721466957.402
1693299.0,1721466957.439
1694007.0,1721466957.481
1695120.0,1721466957.52
1697509.0,1721466957.602
1696342.0,1721466957.56
1699107.0,1721466957.641
1694289.0,1721466957.722
1698691.0,1721466957.681
1688725.0,1721466957.759
1684529.0,1721466957.8
1681531.0,1721466957.841
1681531.0,1721466957.875
1679343.0,1721466957.915
1678867.0,1721466957.956
1679001.0,1721466957.996
1678524.0,1721466958.035
1678285.0,1721466958.116
1678137.0,1721466958.076
1678348.0,1721466958.156
1679260.0,1721466958.197
1680841.0,1721466958.236
1682879.0,1721466958.276
1684648.0,1721466958.317
1686961.0,1721466958.356
1690387.0,1721466958.397
1693542.0,1721466958.437
1695418.0,1721466958.476
1697873.0,1721466958.516
1699780.0,1721466958.557
1699254.0,1721466958.595
1694903.0,1721466958.632
1690324.0,1721466958.666
1686770.0,1721466958.706
1684518.0,1721466958.743
1683611.0,1721466958.783
1683624.0,1721466958.821
1683503.0,1721466958.861
1683417.0,1721466958.903
1683175.0,1721466958.942
1683127.0,1721466958.982
1683604.0,1721466959.019
1684761.0,1721466959.058
1685733.0,1721466959.098
1687182.0,1721466959.14
1688944.0,1721466959.179
1690456.0,1721466959.219
1692022.0,1721466959.26
1693660.0,1721466959.299
1695823.0,1721466959.339
1697867.0,1721466959.381
1699668.0,1721466959.419
1698766.0,1721466959.459
1694948.0,1721466959.5
1691149.0,1721466959.539
1688916.0,1721466959.58
1687612.0,1721466959.62
1687555.0,1721466959.659
1687753.0,1721466959.7
1688379.0,1721466959.742
1689110.0,1721466959.782
1689539.0,1721466959.821
1690004.0,1721466959.863
1691234.0,1721466959.902
1692535.0,1721466959.942
1693889.0,1721466959.984
1695789.0,1721466960.013
1697661.0,1721466960.053
1699731.0,1721466960.094
1701920.0,1721466960.133
1704226.0,1721466960.174
1706536.0,1721466960.214
1709162.0,1721466960.253
1712312.0,1721466960.293
1713498.0,1721466960.334
1711030.0,1721466960.374
1709496.0,1721466960.414
1710659.0,1721466960.455
1710579.0,1721466960.494
1709522.0,1721466960.534
1709392.0,1721466960.576
1709358.0,1721466960.614
1709769.0,1721466960.654
1709837.0,1721466960.695
1710532.0,1721466960.734
1711032.0,1721466960.776
1712049.0,1721466960.817
1713652.0,1721466960.856
1715267.0,1721466960.897
1716579.0,1721466960.938
1718970.0,1721466960.978
1720656.0,1721466961.017
1722422.0,1721466961.059
1724500.0,1721466961.098
1726004.0,1721466961.138
1725503.0,1721466961.18
1722047.0,1721466961.218
1718758.0,1721466961.259
1717155.0,1721466961.297
1716730.0,1721466961.336
1717291.0,1721466961.377
1717762.0,1721466961.417
1718737.0,1721466961.456
1719486.0,1721466961.496
1720198.0,1721466961.538
1720879.0,1721466961.577
1722138.0,1721466961.617
1723607.0,1721466961.658
1725281.0,1721466961.697
1726798.0,1721466961.737
1728614.0,1721466961.779
1730664.0,1721466961.817
1732525.0,1721466961.857
1734900.0,1721466961.898
1736622.0,1721466961.937
1735818.0,1721466961.978
1732387.0,1721466962.018
1729845.0,1721466962.058
1728094.0,1721466962.099
1727406.0,1721466962.14
1727557.0,1721466962.18
1728159.0,1721466962.217
1728717.0,1721466962.259
1729343.0,1721466962.298
1730489.0,1721466962.338
1731466.0,1721466962.38
1733052.0,1721466962.419
1737211.0,1721466962.448
1739666.0,1721466962.489
1743402.0,1721466962.528
1746957.0,1721466962.569
1755059.0,1721466962.689
1749590.0,1721466962.61
1752498.0,1721466962.649
1757393.0,1721466962.73
1757723.0,1721466962.77
1751304.0,1721466962.85
1754913.0,1721466962.809
1748602.0,1721466962.889
1746674.0,1721466962.929
1745807.0,1721466962.971
1745253.0,1721466963.009
1744849.0,1721466963.05
1744271.0,1721466963.091
1743616.0,1721466963.13
1743290.0,1721466963.172
1743277.0,1721466963.207
1743438.0,1721466963.247
1743599.0,1721466963.279
1744488.0,1721466963.32
1745106.0,1721466963.358
1746303.0,1721466963.397
1746954.0,1721466963.439
1748378.0,1721466963.478
1749163.0,1721466963.518
1749225.0,1721466963.558
1749225.0,1721466963.594
1746106.0,1721466963.634
1742177.0,1721466963.675
1739122.0,1721466963.714
1737281.0,1721466963.755
1736211.0,1721466963.796
1736076.0,1721466963.835
1735829.0,1721466963.875
1735470.0,1721466963.916
1735310.0,1721466963.956
1735034.0,1721466963.995
1735097.0,1721466964.036
1735416.0,1721466964.075
1735979.0,1721466964.115
1736443.0,1721466964.157
1737537.0,1721466964.195
1738568.0,1721466964.235
1739522.0,1721466964.276
1740622.0,1721466964.316
1742146.0,1721466964.358
1742321.0,1721466964.399
1739017.0,1721466964.438
1734820.0,1721466964.477
1731390.0,1721466964.519
1729432.0,1721466964.558
1728432.0,1721466964.598
1728071.0,1721466964.639
1728053.0,1721466964.68
1727866.0,1721466964.718
1727611.0,1721466964.759
1727426.0,1721466964.798
1727744.0,1721466964.838
1728499.0,1721466964.879
1729149.0,1721466964.918
1729868.0,1721466964.959
1730973.0,1721466964.999
1732527.0,1721466965.038
1733522.0,1721466965.078
1734929.0,1721466965.119
1736113.0,1721466965.159
1737782.0,1721466965.199
1738909.0,1721466965.24
1740348.0,1721466965.279
1738923.0,1721466965.319
1734408.0,1721466965.361
1730629.0,1721466965.399
1727894.0,1721466965.439
1726192.0,1721466965.48
1725329.0,1721466965.52
1724889.0,1721466965.561
1724905.0,1721466965.599
1724536.0,1721466965.638
1724291.0,1721466965.679
1724252.0,1721466965.72
1724655.0,1721466965.76
1725389.0,1721466965.799
1726100.0,1721466965.84
1726896.0,1721466965.879
1728472.0,1721466965.919
1729802.0,1721466965.961
1730932.0,1721466966.0
1732297.0,1721466966.04
1733783.0,1721466966.081
1735119.0,1721466966.12
1735636.0,1721466966.16
1732744.0,1721466966.201
1728354.0,1721466966.24
1725246.0,1721466966.28
1724454.0,1721466966.321
1724521.0,1721466966.361
1724767.0,1721466966.4
1726064.0,1721466966.441
1728142.0,1721466966.48
1731206.0,1721466966.52
1734128.0,1721466966.562
1736938.0,1721466966.598
1739841.0,1721466966.639
1741480.0,1721466966.68
1741908.0,1721466966.719
1742718.0,1721466966.76
1744029.0,1721466966.801
1745775.0,1721466966.837
1749446.0,1721466966.879
1754047.0,1721466966.92
1759690.0,1721466966.959
1760043.0,1721466966.999
1754997.0,1721466967.04
1751062.0,1721466967.07
1747386.0,1721466967.11
1746304.0,1721466967.152
1746512.0,1721466967.191
1747425.0,1721466967.231
1747932.0,1721466967.272
1748261.0,1721466967.311
1749515.0,1721466967.352
1750560.0,1721466967.392
1751634.0,1721466967.431
1753136.0,1721466967.471
1754816.0,1721466967.512
1756335.0,1721466967.552
1758427.0,1721466967.591
1760019.0,1721466967.633
1761922.0,1721466967.672
1763747.0,1721466967.712
1763329.0,1721466967.754
1758965.0,1721466967.793
1755227.0,1721466967.828
1752172.0,1721466967.87
1749957.0,1721466967.902
1748554.0,1721466967.981
1748931.0,1721466967.943
1748823.0,1721466968.02
1748401.0,1721466968.102
1748525.0,1721466968.061
1748969.0,1721466968.181
1748536.0,1721466968.142
1750496.0,1721466968.262
1753397.0,1721466968.343
1754697.0,1721466968.381
1756510.0,1721466968.421
1758194.0,1721466968.463
1751911.0,1721466968.301
1749732.0,1721466968.223
1759329.0,1721466968.502
1757582.0,1721466968.542
1753217.0,1721466968.583
1749318.0,1721466968.622
1746608.0,1721466968.662
1744492.0,1721466968.703
1743610.0,1721466968.743
1742689.0,1721466968.782
1741547.0,1721466968.862
1742244.0,1721466968.823
1740972.0,1721466968.902
1740631.0,1721466968.944
1740537.0,1721466968.983
1740709.0,1721466969.064
1740635.0,1721466969.023
1742087.0,1721466969.142
1741176.0,1721466969.101
1743086.0,1721466969.182
1744217.0,1721466969.221
1745202.0,1721466969.262
1746189.0,1721466969.303
1745315.0,1721466969.343
1741096.0,1721466969.381
1736386.0,1721466969.422
1732685.0,1721466969.454
1730130.0,1721466969.494
1729156.0,1721466969.536
1728598.0,1721466969.574
1728079.0,1721466969.614
1727610.0,1721466969.655
1726994.0,1721466969.694
1726564.0,1721466969.735
1726936.0,1721466969.776
1727798.0,1721466969.815
1728431.0,1721466969.855
1729745.0,1721466969.896
1731207.0,1721466969.936
1732489.0,1721466969.975
1733726.0,1721466970.016
1735176.0,1721466970.055
1736481.0,1721466970.095
1736069.0,1721466970.138
1731722.0,1721466970.173
1726637.0,1721466970.21
1722717.0,1721466970.242
1720114.0,1721466970.281
1718391.0,1721466970.322
1717958.0,1721466970.362
1717485.0,1721466970.401
1717199.0,1721466970.442
1716828.0,1721466970.483
1716868.0,1721466970.521
1717164.0,1721466970.561
1718111.0,1721466970.602
1719134.0,1721466970.641
1719134.0,1721466970.675
1721937.0,1721466970.717
1724773.0,1721466970.755
1725915.0,1721466970.795
1727402.0,1721466970.837
1729307.0,1721466970.875
1730572.0,1721466970.916
1732182.0,1721466970.957
1735658.0,1721466970.996
1739530.0,1721466971.036
1742373.0,1721466971.077
1746453.0,1721466971.117
1749285.0,1721466971.156
1751581.0,1721466971.197
1758506.0,1721466971.236
1759674.0,1721466971.277
1757275.0,1721466971.318
1755053.0,1721466971.357
1753781.0,1721466971.396
1751165.0,1721466971.434
1750490.0,1721466971.467
1750885.0,1721466971.504
1750751.0,1721466971.543
1750820.0,1721466971.582
1751635.0,1721466971.622
1752020.0,1721466971.664
1752068.0,1721466971.703
1753227.0,1721466971.743
1754079.0,1721466971.784
1754947.0,1721466971.823
1755788.0,1721466971.864
1757499.0,1721466971.904
1758045.0,1721466971.947
1755600.0,1721466971.987
1751124.0,1721466972.028
1747810.0,1721466972.067
1746374.0,1721466972.107
1746917.0,1721466972.148
1748639.0,1721466972.187
1750711.0,1721466972.227
1753088.0,1721466972.268
1754404.0,1721466972.308
1756413.0,1721466972.347
1758619.0,1721466972.388
1760819.0,1721466972.427
1763343.0,1721466972.467
1766178.0,1721466972.509
1768644.0,1721466972.548
1771201.0,1721466972.588
1774080.0,1721466972.629
1777098.0,1721466972.668
1779770.0,1721466972.709
1782282.0,1721466972.75
1783595.0,1721466972.789
1781852.0,1721466972.827
1778633.0,1721466972.869
1776526.0,1721466972.908
1775935.0,1721466972.948
1776142.0,1721466972.989
1777163.0,1721466973.028
1778548.0,1721466973.069
1778675.0,1721466973.111
1779609.0,1721466973.149
1781255.0,1721466973.187
1781203.0,1721466973.229
1781517.0,1721466973.268
1782791.0,1721466973.308
1784563.0,1721466973.348
1786193.0,1721466973.387
1793447.0,1721466973.427
1795854.0,1721466973.469
1794853.0,1721466973.508
1793536.0,1721466973.548
1794588.0,1721466973.589
1795096.0,1721466973.628
1794242.0,1721466973.668
1791062.0,1721466973.71
1784794.0,1721466973.748
1778686.0,1721466973.788
1773784.0,1721466973.829
1770090.0,1721466973.868
1767602.0,1721466973.909
1765629.0,1721466973.949
1764139.0,1721466973.988
1762467.0,1721466974.029
1760818.0,1721466974.071
1759439.0,1721466974.108
1758690.0,1721466974.148
1758604.0,1721466974.19
1758276.0,1721466974.229
1758719.0,1721466974.269
1759485.0,1721466974.311
1760009.0,1721466974.349
1760482.0,1721466974.39
1761305.0,1721466974.428
1762210.0,1721466974.461
1763355.0,1721466974.502
1764744.0,1721466974.542
1756321.0,1721466974.663
1765072.0,1721466974.581
1762061.0,1721466974.621
1751598.0,1721466974.702
1748534.0,1721466974.742
1746512.0,1721466974.783
1745633.0,1721466974.862
1744926.0,1721466974.942
1746211.0,1721466974.822
1744723.0,1721466975.023
1744792.0,1721466974.982
1745578.0,1721466975.103
1745348.0,1721466974.904
1744749.0,1721466975.062
1746537.0,1721466975.145
1747783.0,1721466975.181
1749211.0,1721466975.221
1750643.0,1721466975.257
1752074.0,1721466975.297
1753791.0,1721466975.33
1755543.0,1721466975.368
1756410.0,1721466975.408
1753626.0,1721466975.448
1747919.0,1721466975.49
1742963.0,1721466975.529
1739606.0,1721466975.569
1739606.0,1721466975.606
1737761.0,1721466975.645
1736624.0,1721466975.686
1736594.0,1721466975.726
1736107.0,1721466975.765
1736001.0,1721466975.805
1735463.0,1721466975.847
1735579.0,1721466975.886
1735761.0,1721466975.926
1736612.0,1721466975.967
1737566.0,1721466976.006
1738891.0,1721466976.046
1740590.0,1721466976.088
1742011.0,1721466976.126
1743920.0,1721466976.166
1745596.0,1721466976.208
1747432.0,1721466976.247
1749564.0,1721466976.287
1750308.0,1721466976.328
1746520.0,1721466976.367
1741053.0,1721466976.407
1736990.0,1721466976.448
1733595.0,1721466976.487
1732232.0,1721466976.527
1731481.0,1721466976.568
1731412.0,1721466976.607
1730868.0,1721466976.69
1731260.0,1721466976.648
1730657.0,1721466976.728
1731265.0,1721466976.809
1730907.0,1721466976.768
1733512.0,1721466976.889
1734891.0,1721466976.929
1732289.0,1721466976.848
1736363.0,1721466976.968
1737710.0,1721466977.009
1739412.0,1721466977.05
1740954.0,1721466977.089
1742940.0,1721466977.129
1744813.0,1721466977.17
1746277.0,1721466977.209
1744250.0,1721466977.249
1739342.0,1721466977.291
1735614.0,1721466977.329
1733080.0,1721466977.369
1731964.0,1721466977.41
1731830.0,1721466977.449
1732060.0,1721466977.49
1732102.0,1721466977.531
1732316.0,1721466977.57
1732309.0,1721466977.61
1732639.0,1721466977.651
1733350.0,1721466977.689
1734085.0,1721466977.729
1735137.0,1721466977.77
1736168.0,1721466977.809
1737810.0,1721466977.85
1739459.0,1721466977.892
1741327.0,1721466977.93
1743519.0,1721466977.97
1747174.0,1721466978.049
1745292.0,1721466978.012
1747678.0,1721466978.09
1743833.0,1721466978.125
1738949.0,1721466978.164
1734810.0,1721466978.204
1732451.0,1721466978.245
1731277.0,1721466978.285
1731080.0,1721466978.324
1731367.0,1721466978.365
1731299.0,1721466978.486
1731649.0,1721466978.405
1731230.0,1721466978.445
1731741.0,1721466978.525
1732330.0,1721466978.565
1733037.0,1721466978.606
1734184.0,1721466978.645
1735395.0,1721466978.686
1736941.0,1721466978.726
1739007.0,1721466978.765
1740745.0,1721466978.805
1742989.0,1721466978.845
1745388.0,1721466978.884
1747791.0,1721466978.92
1749829.0,1721466978.954
1747828.0,1721466978.993
1742556.0,1721466979.032
1737886.0,1721466979.072
1734792.0,1721466979.11
1732644.0,1721466979.151
1731609.0,1721466979.192
1731430.0,1721466979.231
1731713.0,1721466979.272
1732522.0,1721466979.313
1732839.0,1721466979.352
1733648.0,1721466979.39
1734228.0,1721466979.432
1735407.0,1721466979.471
1736554.0,1721466979.511
1737823.0,1721466979.553
1739047.0,1721466979.592
1740744.0,1721466979.628
1742112.0,1721466979.67
1743682.0,1721466979.708
1745723.0,1721466979.748
1747793.0,1721466979.79
1749324.0,1721466979.829
1748220.0,1721466979.869
1743409.0,1721466979.91
1739041.0,1721466979.95
1736609.0,1721466979.989
1735232.0,1721466980.03
1734904.0,1721466980.07
1735372.0,1721466980.109
1735448.0,1721466980.15
1735620.0,1721466980.189
1735942.0,1721466980.271
1735304.0,1721466980.229
1736518.0,1721466980.309
1737946.0,1721466980.349
1740911.0,1721466980.429
1739089.0,1721466980.39
1742671.0,1721466980.47
1744637.0,1721466980.51
1748433.0,1721466980.59
1746635.0,1721466980.549
1750515.0,1721466980.631
1754201.0,1721466980.751
1749798.0,1721466980.79
1745044.0,1721466980.83
1752355.0,1721466980.67
1754512.0,1721466980.71
1741688.0,1721466980.872
1739926.0,1721466980.91
1738930.0,1721466980.95
1738856.0,1721466980.991
1739113.0,1721466981.03
1739092.0,1721466981.071
1738857.0,1721466981.111
1739103.0,1721466981.15
1739621.0,1721466981.19
1740391.0,1721466981.232
1741550.0,1721466981.271
1742951.0,1721466981.311
1744433.0,1721466981.352
1746234.0,1721466981.391
1747803.0,1721466981.431
1749402.0,1721466981.473
1751431.0,1721466981.511
1753150.0,1721466981.551
1755071.0,1721466981.592
1757038.0,1721466981.631
1752949.0,1721466981.712
1757260.0,1721466981.672
1747814.0,1721466981.751
1744034.0,1721466981.792
1741995.0,1721466981.833
1741091.0,1721466981.872
1740788.0,1721466981.912
1740941.0,1721466981.953
1741044.0,1721466981.992
1740895.0,1721466982.032
1740570.0,1721466982.074
1740940.0,1721466982.112
1741631.0,1721466982.152
1742670.0,1721466982.193
1743836.0,1721466982.232
1745770.0,1721466982.273
1747383.0,1721466982.313
1748972.0,1721466982.352
1750727.0,1721466982.392
1752513.0,1721466982.434
1754297.0,1721466982.473
1756140.0,1721466982.513
1756623.0,1721466982.554
1752576.0,1721466982.593
1747680.0,1721466982.633
1743792.0,1721466982.675
1741905.0,1721466982.713
1741176.0,1721466982.753
1741233.0,1721466982.794
1741638.0,1721466982.833
1741862.0,1721466982.914
1741980.0,1721466982.874
1742335.0,1721466982.953
1742734.0,1721466982.993
1744690.0,1721466983.074
1743609.0,1721466983.035
1745961.0,1721466983.114
1747409.0,1721466983.155
1749277.0,1721466983.194
1750999.0,1721466983.234
1752693.0,1721466983.276
1754638.0,1721466983.314
1756629.0,1721466983.354
1758777.0,1721466983.395
1760702.0,1721466983.434
1759602.0,1721466983.475
1754932.0,1721466983.513
1750616.0,1721466983.552
1747627.0,1721466983.593
1745590.0,1721466983.634
1744991.0,1721466983.674
1745111.0,1721466983.713
1745098.0,1721466983.755
1745034.0,1721466983.794
1744838.0,1721466983.834
1744740.0,1721466983.874
1745056.0,1721466983.913
1745710.0,1721466983.952
1746634.0,1721466983.991
1747616.0,1721466984.03
1748933.0,1721466984.069
1750626.0,1721466984.108
1751873.0,1721466984.147
1753541.0,1721466984.186
1755058.0,1721466984.225
1756906.0,1721466984.264
1758534.0,1721466984.303
1758288.0,1721466984.342
1754044.0,1721466984.381
1749244.0,1721466984.42
1745933.0,1721466984.459
1743909.0,1721466984.498
1743114.0,1721466984.537
1743189.0,1721466984.576
1743450.0,1721466984.615
1743468.0,1721466984.654
1743124.0,1721466984.693
1742916.0,1721466984.732
1743275.0,1721466984.771
1743918.0,1721466984.81
1744541.0,1721466984.849
1745515.0,1721466984.888
1747298.0,1721466984.927
1748759.0,1721466984.966
1750045.0,1721466985.005
1752099.0,1721466985.044
1753672.0,1721466985.083
1752827.0,1721466985.122
1748077.0,1721466985.161
1743061.0,1721466985.2
1740016.0,1721466985.239
1738151.0,1721466985.278
1737657.0,1721466985.317
1737950.0,1721466985.356
1739691.0,1721466985.395
1741563.0,1721466985.434
1742586.0,1721466985.473
1742448.0,1721466985.512
1743297.0,1721466985.551
1744844.0,1721466985.59
1746429.0,1721466985.629
1748044.0,1721466985.668
1750322.0,1721466985.707
1753269.0,1721466985.746
1756426.0,1721466985.785
1762812.0,1721466985.824
1764681.0,1721466985.863
1764309.0,1721466985.902
1760696.0,1721466985.941
1751712.0,1721466985.98
1744126.0,1721466986.019
1739103.0,1721466986.058
1735147.0,1721466986.097
1732330.0,1721466986.136
1730820.0,1721466986.175
1729511.0,1721466986.214
1727840.0,1721466986.253
1726965.0,1721466986.292
1726366.0,1721466986.331
1726068.0,1721466986.37
1726353.0,1721466986.409
1727159.0,1721466986.448
1728769.0,1721466986.487
1732297.0,1721466986.565
1730330.0,1721466986.526
1734286.0,1721466986.604
1736244.0,1721466986.643
1736244.0,1721466986.682
1738458.0,1721466986.721
1741528.0,1721466986.799
1740452.0,1721466986.76
1732931.0,1721466986.877
1737999.0,1721466986.838
1726337.0,1721466986.955
1728871.0,1721466986.916
1725330.0,1721466986.994
1725163.0,1721466987.033
1725367.0,1721466987.072
1725850.0,1721466987.111
1725551.0,1721466987.15
1725198.0,1721466987.189
1725214.0,1721466987.228
1725918.0,1721466987.267
1726334.0,1721466987.306
1727994.0,1721466987.345
1729513.0,1721466987.384
1731216.0,1721466987.423
1733001.0,1721466987.462
1735126.0,1721466987.501
1737139.0,1721466987.54
1739268.0,1721466987.579
1742002.0,1721466987.618
1741827.0,1721466987.657
1738240.0,1721466987.696
1735637.0,1721466987.735
1735458.0,1721466987.774
1736013.0,1721466987.813
1736916.0,1721466987.852
1740157.0,1721466987.891
1745209.0,1721466987.93
1745227.0,1721466987.969
1742990.0,1721466988.008
1741797.0,1721466988.047
1740716.0,1721466988.086
1740424.0,1721466988.125
1740433.0,1721466988.164
1741091.0,1721466988.203
1741564.0,1721466988.242
1742664.0,1721466988.281
1743682.0,1721466988.32
1744848.0,1721466988.359
1746249.0,1721466988.398
1747646.0,1721466988.437
1749104.0,1721466988.476
1750145.0,1721466988.515
1748012.0,1721466988.554
1742147.0,1721466988.593
1737244.0,1721466988.632
1733905.0,1721466988.671
1731877.0,1721466988.71
1731130.0,1721466988.75
1731325.0,1721466988.79
1731502.0,1721466988.83
1731361.0,1721466988.87
1731453.0,1721466988.91
1731500.0,1721466988.95
1732010.0,1721466988.99
1733107.0,1721466989.03
1734394.0,1721466989.07
1735424.0,1721466989.11
1737277.0,1721466989.15
1739149.0,1721466989.19
1740976.0,1721466989.23
1742777.0,1721466989.27
1744607.0,1721466989.31
1746586.0,1721466989.35
1748249.0,1721466989.39
1746610.0,1721466989.43
1741952.0,1721466989.47
1738341.0,1721466989.51
1736340.0,1721466989.55
1735919.0,1721466989.59
1737731.0,1721466989.63
1739305.0,1721466989.67
1742430.0,1721466989.71
1744369.0,1721466989.75
1747068.0,1721466989.79
1752398.0,1721466989.83
1754057.0,1721466989.87
1753407.0,1721466989.91
1752839.0,1721466989.95
1752761.0,1721466989.99
1753437.0,1721466990.03
1754648.0,1721466990.07
1756093.0,1721466990.11
1757552.0,1721466990.15
1759307.0,1721466990.19
1759051.0,1721466990.23
1754982.0,1721466990.27
1750028.0,1721466990.31
1746596.0,1721466990.35
1744540.0,1721466990.39
1743594.0,1721466990.43
1743457.0,1721466990.47
1743866.0,1721466990.51
1744079.0,1721466990.55
1744192.0,1721466990.59
1744668.0,1721466990.63
1745457.0,1721466990.67
1746346.0,1721466990.71
1747662.0,1721466990.75
1749370.0,1721466990.79
1750714.0,1721466990.83
1752636.0,1721466990.87
1754904.0,1721466990.91
1756633.0,1721466990.95
1758620.0,1721466990.99
1760751.0,1721466991.03
1762538.0,1721466991.07
1760647.0,1721466991.11
1755472.0,1721466991.15
1751320.0,1721466991.19
1748512.0,1721466991.23
1746951.0,1721466991.27
1746376.0,1721466991.31
1746765.0,1721466991.35
1747022.0,1721466991.39
1746749.0,1721466991.43
1746693.0,1721466991.47
1746775.0,1721466991.51
1747356.0,1721466991.55
1748184.0,1721466991.59
1749273.0,1721466991.63
1751866.0,1721466991.67
1755036.0,1721466991.71
1758582.0,1721466991.75
1762510.0,1721466991.79
1769328.0,1721466991.83
1774226.0,1721466991.87
1775521.0,1721466991.91
1776515.0,1721466991.95
1773715.0,1721466991.99
1767240.0,1721466992.03
1762117.0,1721466992.07
1759208.0,1721466992.11
1757272.0,1721466992.15
1756007.0,1721466992.19
1756148.0,1721466992.23
1756327.0,1721466992.27
1755992.0,1721466992.31
1756036.0,1721466992.35
1756534.0,1721466992.39
1757600.0,1721466992.43
1758596.0,1721466992.47
1760006.0,1721466992.51
1761525.0,1721466992.55
1763454.0,1721466992.59
1766029.0,1721466992.63
1768015.0,1721466992.67
1768015.0,1721466992.71
1770231.0,1721466992.75
1772886.0,1721466992.79
1775136.0,1721466992.83
1776074.0,1721466992.87
1772655.0,1721466992.91
1767594.0,1721466992.95
1764101.0,1721466992.99
1761799.0,1721466993.03
1760745.0,1721466993.07
1760923.0,1721466993.11
1761449.0,1721466993.15
1761895.0,1721466993.19
1761923.0,1721466993.23
1762105.0,1721466993.27
1762498.0,1721466993.31
1763602.0,1721466993.35
1764623.0,1721466993.39
1766236.0,1721466993.43
1767624.0,1721466993.47
1769731.0,1721466993.51
1771506.0,1721466993.55
1773036.0,1721466993.59
1774652.0,1721466993.63
1776913.0,1721466993.67
1779628.0,1721466993.71
1782604.0,1721466993.75
1786650.0,1721466993.79
1789103.0,1721466993.83
1792323.0,1721466993.87
1796675.0,1721466993.91
1801351.0,1721466993.95
1806148.0,1721466993.99
1809828.0,1721466994.03
1807898.0,1721466994.07
1799876.0,1721466994.11
1793407.0,1721466994.15
1788497.0,1721466994.19
1784460.0,1721466994.23
1782404.0,1721466994.27
1781550.0,1721466994.31
1780742.0,1721466994.35
1780380.0,1721466994.39
1780382.0,1721466994.43
1780007.0,1721466994.47
1779876.0,1721466994.51
1780675.0,1721466994.55
1781460.0,1721466994.59
1780587.0,1721466994.63
1777341.0,1721466994.67
1772468.0,1721466994.71
1767181.0,1721466994.75
1763661.0,1721466994.79
1762203.0,1721466994.83
1761204.0,1721466994.87
1760663.0,1721466994.91
1760128.0,1721466994.95
1760699.0,1721466994.99
1761827.0,1721466995.03
1762338.0,1721466995.07
1763756.0,1721466995.11
1765437.0,1721466995.15
1767316.0,1721466995.19
1769206.0,1721466995.23
1771371.0,1721466995.27
1773168.0,1721466995.31
1775105.0,1721466995.35
1776906.0,1721466995.39
1775857.0,1721466995.43
1770287.0,1721466995.47
1765075.0,1721466995.51
1761350.0,1721466995.55
1758565.0,1721466995.59
1757349.0,1721466995.63
1757047.0,1721466995.67
1756047.0,1721466995.71
1755668.0,1721466995.75
1754985.0,1721466995.786
1754624.0,1721466995.826
1754673.0,1721466995.868
1754997.0,1721466995.907
1756213.0,1721466995.947
1757783.0,1721466995.988
1759114.0,1721466996.027
1760036.0,1721466996.067
1761233.0,1721466996.108
1762736.0,1721466996.148
1762401.0,1721466996.187
1758690.0,1721466996.228
1751616.0,1721466996.268
1745512.0,1721466996.307
1740847.0,1721466996.344
1737498.0,1721466996.375
1735545.0,1721466996.412
1734253.0,1721466996.453
1732947.0,1721466996.492
1731560.0,1721466996.533
1730340.0,1721466996.574
1729462.0,1721466996.613
1728911.0,1721466996.653
1729434.0,1721466996.695
1730099.0,1721466996.734
1731972.0,1721466996.815
1731043.0,1721466996.774
1733126.0,1721466996.854
1733222.0,1721466997.055
1726046.0,1721466997.094
1735649.0,1721466996.935
1737152.0,1721466996.974
1737823.0,1721466997.014
1719542.0,1721466997.135
1714555.0,1721466997.175
1711374.0,1721466997.214
1709230.0,1721466997.254
1707925.0,1721466997.295
1706597.0,1721466997.335
1705067.0,1721466997.374
1734525.0,1721466996.894
1703969.0,1721466997.413
1703062.0,1721466997.452
1702682.0,1721466997.493
1702962.0,1721466997.534
1703672.0,1721466997.573
1704268.0,1721466997.613
1706441.0,1721466997.694
1707324.0,1721466997.735
1708732.0,1721466997.775
1709949.0,1721466997.812
1708036.0,1721466997.852
1701709.0,1721466997.893
1694516.0,1721466997.933
1689796.0,1721466997.972
1686446.0,1721466998.014
1684614.0,1721466998.053
1683971.0,1721466998.093
1683085.0,1721466998.134
1682098.0,1721466998.173
1681393.0,1721466998.213
1680751.0,1721466998.254
1680790.0,1721466998.293
1681143.0,1721466998.334
1682014.0,1721466998.374
1683340.0,1721466998.413
1684809.0,1721466998.453
1686336.0,1721466998.494
1705249.0,1721466997.655
1691451.0,1721466998.615
1693238.0,1721466998.654
1692294.0,1721466998.694
1685416.0,1721466998.734
1678311.0,1721466998.773
1689439.0,1721466998.574
1687910.0,1721466998.534
1672555.0,1721466998.813
1668215.0,1721466998.855
1665926.0,1721466998.894
1664567.0,1721466998.935
1664097.0,1721466999.01
1664567.0,1721466998.971
1662007.0,1721466999.091
1663094.0,1721466999.05
1661584.0,1721466999.131
1661599.0,1721466999.17
1661771.0,1721466999.212
1662934.0,1721466999.251
1663926.0,1721466999.291
1665167.0,1721466999.332
1666715.0,1721466999.371
1668439.0,1721466999.411
1670295.0,1721466999.452
1672279.0,1721466999.491
1671226.0,1721466999.532
1664672.0,1721466999.572
1657124.0,1721466999.611
1651287.0,1721466999.651
1647156.0,1721466999.692
1644386.0,1721466999.732
1643183.0,1721466999.771
1642373.0,1721466999.813
1641409.0,1721466999.853
1640390.0,1721466999.893
1639707.0,1721466999.935
1639492.0,1721466999.973
1639750.0,1721467000.013
1640639.0,1721467000.055
1641593.0,1721467000.094
1643214.0,1721467000.135
1646069.0,1721467000.214
1644494.0,1721467000.175
1647676.0,1721467000.255
1649797.0,1721467000.296
1650497.0,1721467000.334
1646187.0,1721467000.373
1639304.0,1721467000.414
1633266.0,1721467000.453
1629387.0,1721467000.493
1627368.0,1721467000.535
1626657.0,1721467000.573
1626793.0,1721467000.613
1626799.0,1721467000.654
1626342.0,1721467000.693
1626244.0,1721467000.734
1626661.0,1721467000.774
1627647.0,1721467000.813
1629004.0,1721467000.854
1630797.0,1721467000.895
1632503.0,1721467000.934
1635002.0,1721467000.974
1637341.0,1721467001.015
1639478.0,1721467001.054
1641829.0,1721467001.095
1644107.0,1721467001.136
1642908.0,1721467001.175
1636444.0,1721467001.215
1629689.0,1721467001.257
1624928.0,1721467001.296
1621562.0,1721467001.334
1619811.0,1721467001.375
1619575.0,1721467001.414
1619803.0,1721467001.446
1620049.0,1721467001.488
1619710.0,1721467001.527
1620235.0,1721467001.567
1621095.0,1721467001.608
1622116.0,1721467001.647
1624292.0,1721467001.687
1626299.0,1721467001.729
1628371.0,1721467001.767
1630471.0,1721467001.807
1632733.0,1721467001.848
1635130.0,1721467001.887
1638133.0,1721467001.928
1640201.0,1721467001.969
1638177.0,1721467002.007
1631599.0,1721467002.048
1625433.0,1721467002.089
1621198.0,1721467002.128
1618566.0,1721467002.163
1617701.0,1721467002.198
1618055.0,1721467002.235
1618488.0,1721467002.276
1618799.0,1721467002.317
1618779.0,1721467002.356
1619631.0,1721467002.396
1620436.0,1721467002.438
1621933.0,1721467002.477
1623927.0,1721467002.518
1625910.0,1721467002.556
1628034.0,1721467002.595
1630591.0,1721467002.635
1633347.0,1721467002.677
1635604.0,1721467002.717
1638503.0,1721467002.747
1641238.0,1721467002.788
1640702.0,1721467002.827
1630210.0,1721467002.909
1635355.0,1721467002.867
1626860.0,1721467002.948
1625112.0,1721467002.988
1625030.0,1721467003.029
1625821.0,1721467003.068
1626774.0,1721467003.109
1627578.0,1721467003.149
1628387.0,1721467003.188
1629409.0,1721467003.228
1630860.0,1721467003.269
1632936.0,1721467003.309
1635133.0,1721467003.348
1637950.0,1721467003.389
1640738.0,1721467003.428
1643666.0,1721467003.47
1646297.0,1721467003.507
1649196.0,1721467003.535
1652032.0,1721467003.576
1654965.0,1721467003.617
1657535.0,1721467003.656
1655886.0,1721467003.697
1650321.0,1721467003.738
1645603.0,1721467003.775
1642973.0,1721467003.815
1641594.0,1721467003.857
1641610.0,1721467003.895
1642632.0,1721467003.934
1643606.0,1721467003.975
1644467.0,1721467004.014
1645556.0,1721467004.054
1646795.0,1721467004.096
1648346.0,1721467004.134
1650314.0,1721467004.175
1652828.0,1721467004.216
1655258.0,1721467004.255
1657881.0,1721467004.295
1660817.0,1721467004.336
1663585.0,1721467004.375
1666267.0,1721467004.415
1669357.0,1721467004.456
1672502.0,1721467004.496
1674004.0,1721467004.535
1670883.0,1721467004.576
1666404.0,1721467004.615
1663394.0,1721467004.655
1661959.0,1721467004.697
1662043.0,1721467004.736
1662978.0,1721467004.776
1664053.0,1721467004.817
1664879.0,1721467004.857
1665807.0,1721467004.898
1666686.0,1721467004.938
1668236.0,1721467004.975
1669619.0,1721467005.016
1671647.0,1721467005.057
1673895.0,1721467005.097
1673895.0,1721467005.13
1676212.0,1721467005.171
1678600.0,1721467005.21
1680914.0,1721467005.25
1683670.0,1721467005.292
1685942.0,1721467005.331
1685010.0,1721467005.371
1680797.0,1721467005.412
1676992.0,1721467005.451
1674559.0,1721467005.492
1674314.0,1721467005.532
1674702.0,1721467005.571
1676699.0,1721467005.652
1675837.0,1721467005.611
1678517.0,1721467005.732
1677637.0,1721467005.692
1679633.0,1721467005.773
1681049.0,1721467005.812
1683109.0,1721467005.851
1685137.0,1721467005.889
1687490.0,1721467005.928
1690113.0,1721467005.961
1692519.0,1721467006.003
1694930.0,1721467006.039
1697765.0,1721467006.078
1700389.0,1721467006.118
1702256.0,1721467006.157
1699858.0,1721467006.198
1694867.0,1721467006.239
1690907.0,1721467006.279
1688931.0,1721467006.319
1687747.0,1721467006.36
1687949.0,1721467006.397
1688845.0,1721467006.437
1689684.0,1721467006.474
1690333.0,1721467006.513
1690897.0,1721467006.553
1691792.0,1721467006.594
1693012.0,1721467006.633
1694372.0,1721467006.674
1696477.0,1721467006.714
1698322.0,1721467006.753
1700534.0,1721467006.793
1702873.0,1721467006.834
1705251.0,1721467006.874
1705766.0,1721467006.913
1701329.0,1721467006.955
1696222.0,1721467006.994
1692493.0,1721467007.034
1690421.0,1721467007.076
1689652.0,1721467007.114
1689992.0,1721467007.154
1690397.0,1721467007.196
1690340.0,1721467007.235
1690433.0,1721467007.277
1690489.0,1721467007.317
1691411.0,1721467007.357
1692542.0,1721467007.397
1694246.0,1721467007.439
1695971.0,1721467007.478
1697683.0,1721467007.518
1699693.0,1721467007.558
1701817.0,1721467007.588
1704195.0,1721467007.629
1705095.0,1721467007.67
1701359.0,1721467007.706
1695861.0,1721467007.746
1691900.0,1721467007.787
1689022.0,1721467007.867
1689331.0,1721467007.907
1690315.0,1721467007.946
1689643.0,1721467007.826
1690737.0,1721467007.986
1691305.0,1721467008.027
1691911.0,1721467008.067
1692893.0,1721467008.106
1694173.0,1721467008.147
1695983.0,1721467008.186
1698140.0,1721467008.226
1700334.0,1721467008.268
1702544.0,1721467008.308
1707081.0,1721467008.386
1704822.0,1721467008.344
1707030.0,1721467008.417
1702166.0,1721467008.455
1696219.0,1721467008.495
1692172.0,1721467008.534
1688848.0,1721467008.695
1690718.0,1721467008.737
1694613.0,1721467008.776
1689657.0,1721467008.575
1688174.0,1721467008.616
1688531.0,1721467008.656
1698488.0,1721467008.816
1704609.0,1721467008.858
1710143.0,1721467008.896
1716346.0,1721467008.936
1721430.0,1721467008.977
1727591.0,1721467009.016
1735846.0,1721467009.176
1730586.0,1721467009.218
1719374.0,1721467009.257
1735249.0,1721467009.097
1733669.0,1721467009.057
1711352.0,1721467009.297
1735976.0,1721467009.136
1705411.0,1721467009.338
1701207.0,1721467009.377
1700159.0,1721467009.417
1700199.0,1721467009.459
1702651.0,1721467009.578
1701356.0,1721467009.537
1703357.0,1721467009.617
1705013.0,1721467009.658
1700352.0,1721467009.497
1706895.0,1721467009.696
1708702.0,1721467009.736
1711092.0,1721467009.775
1712916.0,1721467009.816
1721772.0,1721467009.937
1723529.0,1721467009.976
1714960.0,1721467009.856
1718263.0,1721467009.896
1720193.0,1721467010.019
1714649.0,1721467010.061
1710223.0,1721467010.099
1707228.0,1721467010.18
1708723.0,1721467010.26
1708750.0,1721467010.3
1708276.0,1721467010.339
1711440.0,1721467010.5
1707961.0,1721467010.219
1708090.0,1721467010.139
1709302.0,1721467010.46
1708064.0,1721467010.379
1708560.0,1721467010.421
1713129.0,1721467010.541
1714674.0,1721467010.58
1717042.0,1721467010.62
1718914.0,1721467010.662
1721434.0,1721467010.7
1723677.0,1721467010.778
1722996.0,1721467010.737
1719299.0,1721467010.817
1712737.0,1721467010.856
1707103.0,1721467010.896
1702951.0,1721467010.936
1700167.0,1721467010.976
1698917.0,1721467011.017
1698037.0,1721467011.057
1697588.0,1721467011.097
1697126.0,1721467011.177
1697152.0,1721467011.138
1697184.0,1721467011.249
1697184.0,1721467011.215
1698177.0,1721467011.287
1699401.0,1721467011.327
1701245.0,1721467011.369
1702755.0,1721467011.408
1704659.0,1721467011.448
1706802.0,1721467011.489
1708672.0,1721467011.528
1710908.0,1721467011.568
1712988.0,1721467011.609
1715361.0,1721467011.649
1717774.0,1721467011.688
1718931.0,1721467011.729
1715617.0,1721467011.768
1710187.0,1721467011.808
1705731.0,1721467011.85
1702784.0,1721467011.888
1702077.0,1721467011.928
1702968.0,1721467011.971
1705570.0,1721467012.007
1706922.0,1721467012.04
1707770.0,1721467012.081
1708838.0,1721467012.118
1709716.0,1721467012.157
1711453.0,1721467012.198
1712616.0,1721467012.238
1714179.0,1721467012.278
1715810.0,1721467012.314
1717344.0,1721467012.353
1719105.0,1721467012.393
1720799.0,1721467012.435
1722364.0,1721467012.473
1724501.0,1721467012.513
1726385.0,1721467012.554
1724918.0,1721467012.593
1719844.0,1721467012.634
1714903.0,1721467012.675
1712060.0,1721467012.714
1710680.0,1721467012.754
1710937.0,1721467012.795
1711150.0,1721467012.835
1711824.0,1721467012.874
1712245.0,1721467012.915
1712235.0,1721467012.954
1712854.0,1721467012.994
1713882.0,1721467013.037
1715482.0,1721467013.076
1717171.0,1721467013.116
1719212.0,1721467013.158
1721512.0,1721467013.197
1723648.0,1721467013.238
1725649.0,1721467013.279
1727891.0,1721467013.318
1729951.0,1721467013.358
1731061.0,1721467013.4
1727730.0,1721467013.439
1722337.0,1721467013.478
1718305.0,1721467013.519
1716527.0,1721467013.558
1715649.0,1721467013.598
1716331.0,1721467013.64
1717231.0,1721467013.678
1717635.0,1721467013.718
1718001.0,1721467013.76
1718776.0,1721467013.799
1719786.0,1721467013.839
1720902.0,1721467013.88
1722325.0,1721467013.919
1724348.0,1721467013.959
1726536.0,1721467014.0
1728826.0,1721467014.04
1731044.0,1721467014.079
1733249.0,1721467014.12
1735742.0,1721467014.159
1738365.0,1721467014.2
1738369.0,1721467014.242
1733729.0,1721467014.279
1728905.0,1721467014.318
1725366.0,1721467014.359
1723515.0,1721467014.398
1723198.0,1721467014.439
1724147.0,1721467014.48
1725057.0,1721467014.519
1726732.0,1721467014.559
1729194.0,1721467014.601
1732758.0,1721467014.63
1735835.0,1721467014.67
1736975.0,1721467014.711
1737585.0,1721467014.75
1739460.0,1721467014.79
1741227.0,1721467014.832
1743569.0,1721467014.87
1749648.0,1721467014.91
1748486.0,1721467014.951
1746473.0,1721467014.99
1743971.0,1721467015.031
1737295.0,1721467015.071
1727510.0,1721467015.11
1719275.0,1721467015.151
1714404.0,1721467015.192
1711496.0,1721467015.231
1711078.0,1721467015.271
1711943.0,1721467015.312
1712274.0,1721467015.348
1713022.0,1721467015.382
1714181.0,1721467015.418
1713723.0,1721467015.456
1712772.0,1721467015.496
1713313.0,1721467015.539
1714384.0,1721467015.577
1715350.0,1721467015.618
1716569.0,1721467015.658
1718236.0,1721467015.698
1719464.0,1721467015.738
1721034.0,1721467015.779
1721650.0,1721467015.819
1717142.0,1721467015.858
1710679.0,1721467015.899
1705887.0,1721467015.938
1703225.0,1721467015.978
1701729.0,1721467016.02
1701432.0,1721467016.058
1701880.0,1721467016.099
1702118.0,1721467016.14
1701949.0,1721467016.179
1702125.0,1721467016.219
1702713.0,1721467016.26
1703575.0,1721467016.299
1704797.0,1721467016.339
1706323.0,1721467016.38
1707898.0,1721467016.42
1709469.0,1721467016.459
1711671.0,1721467016.5
1713644.0,1721467016.537
1712203.0,1721467016.578
1706674.0,1721467016.62
1696876.0,1721467016.698
1700967.0,1721467016.658
1694138.0,1721467016.74
1692450.0,1721467016.779
1692006.0,1721467016.82
1692023.0,1721467016.861
1692023.0,1721467016.891
1691462.0,1721467016.931
1690976.0,1721467016.972
1690475.0,1721467017.012
1690585.0,1721467017.051
1690989.0,1721467017.092
1692262.0,1721467017.131
1693643.0,1721467017.171
1694925.0,1721467017.213
1696329.0,1721467017.251
1698265.0,1721467017.291
1699950.0,1721467017.333
1700792.0,1721467017.372
1696707.0,1721467017.412
1690353.0,1721467017.453
1685598.0,1721467017.492
1682415.0,1721467017.532
1680432.0,1721467017.573
1680142.0,1721467017.607
1680418.0,1721467017.641
1680022.0,1721467017.68
1679827.0,1721467017.719
1679930.0,1721467017.76
1680367.0,1721467017.802
1681305.0,1721467017.84
1682745.0,1721467017.88
1684245.0,1721467017.922
1686244.0,1721467017.963
1688249.0,1721467017.998
1690456.0,1721467018.04
1691222.0,1721467018.079
1686998.0,1721467018.118
1681310.0,1721467018.159
1677236.0,1721467018.199
1674787.0,1721467018.238
1673519.0,1721467018.28
1673509.0,1721467018.319
1674280.0,1721467018.359
1675561.0,1721467018.4
1677976.0,1721467018.439
1680265.0,1721467018.479
1682933.0,1721467018.52
1685246.0,1721467018.559
1686703.0,1721467018.6
1691409.0,1721467018.64
1695330.0,1721467018.679
1695724.0,1721467018.719
1695716.0,1721467018.76
1695543.0,1721467018.801
1696744.0,1721467018.84
1696978.0,1721467018.882
1691292.0,1721467018.921
1685154.0,1721467018.961
1680829.0,1721467019.001
1678043.0,1721467019.04
1676796.0,1721467019.08
1676970.0,1721467019.121
1677668.0,1721467019.161
1677949.0,1721467019.202
1678616.0,1721467019.232
1679437.0,1721467019.271
1680809.0,1721467019.311
1682577.0,1721467019.353
1684563.0,1721467019.392
1686599.0,1721467019.432
1689287.0,1721467019.473
1691579.0,1721467019.512
1694140.0,1721467019.552
1696920.0,1721467019.594
1699559.0,1721467019.69
1701758.0,1721467019.771
1692799.0,1721467020.129
1697385.0,1721467019.81
1692940.0,1721467019.851
1690743.0,1721467019.891
1689413.0,1721467019.931
1702470.0,1721467019.73
1690494.0,1721467020.012
1691523.0,1721467020.052
1692072.0,1721467020.091
1689836.0,1721467019.971
1693753.0,1721467020.16
1694939.0,1721467020.2
1697074.0,1721467020.241
1698704.0,1721467020.277
1701110.0,1721467020.317
1704707.0,1721467020.359
1707543.0,1721467020.398
1710077.0,1721467020.439
1712537.0,1721467020.479
1715149.0,1721467020.518
1715714.0,1721467020.558
1713200.0,1721467020.597
1713200.0,1721467020.632
1713483.0,1721467020.671
1711825.0,1721467020.712
1708596.0,1721467020.751
1706296.0,1721467020.792
1704879.0,1721467020.833
1703804.0,1721467020.872
1703733.0,1721467020.912
1703833.0,1721467020.953
1704597.0,1721467020.992
1706326.0,1721467021.033
1708236.0,1721467021.073
1710317.0,1721467021.112
1713383.0,1721467021.153
1716137.0,1721467021.194
1718865.0,1721467021.233
1721503.0,1721467021.273
1724600.0,1721467021.314
1727080.0,1721467021.354
1730303.0,1721467021.394
1733306.0,1721467021.435
1735914.0,1721467021.471
1733767.0,1721467021.512
1729767.0,1721467021.548
1726854.0,1721467021.587
1725746.0,1721467021.619
1725747.0,1721467021.66
1726389.0,1721467021.699
1727760.0,1721467021.738
1729033.0,1721467021.773
1730447.0,1721467021.812
1731218.0,1721467021.852
1732743.0,1721467021.893
1734432.0,1721467021.932
1736277.0,1721467021.972
1738545.0,1721467022.014
1740662.0,1721467022.052
1743074.0,1721467022.092
1745310.0,1721467022.133
1747409.0,1721467022.172
1749881.0,1721467022.213
1751981.0,1721467022.254
1750269.0,1721467022.293
1742888.0,1721467022.374
1746363.0,1721467022.333
1741464.0,1721467022.414
1741379.0,1721467022.451
1741554.0,1721467022.488
1742388.0,1721467022.528
1743160.0,1721467022.56
1743653.0,1721467022.602
1745483.0,1721467022.678
1746793.0,1721467022.719
1744563.0,1721467022.638
1748527.0,1721467022.759
1750488.0,1721467022.8
1754066.0,1721467022.879
1755941.0,1721467022.92
1757864.0,1721467022.961
1752213.0,1721467022.84
1759673.0,1721467022.999
1758783.0,1721467023.038
1754941.0,1721467023.08
1754941.0,1721467023.117
1750772.0,1721467023.157
1747773.0,1721467023.199
1746046.0,1721467023.237
1745507.0,1721467023.277
1746131.0,1721467023.318
1746081.0,1721467023.357
1745992.0,1721467023.398
1746016.0,1721467023.438
1746592.0,1721467023.477
1746343.0,1721467023.517
1746637.0,1721467023.558
1748012.0,1721467023.598
1749393.0,1721467023.637
1751083.0,1721467023.679
1753032.0,1721467023.718
1754901.0,1721467023.758
1756703.0,1721467023.8
1753802.0,1721467023.838
1747909.0,1721467023.878
1742672.0,1721467023.92
1739077.0,1721467023.959
1736565.0,1721467024.0
1735777.0,1721467024.041
1735492.0,1721467024.08
1735213.0,1721467024.12
1735491.0,1721467024.161
1736562.0,1721467024.201
1737732.0,1721467024.239
1740973.0,1721467024.28
1746417.0,1721467024.319
1751400.0,1721467024.359
1755941.0,1721467024.401
1761296.0,1721467024.441
1767003.0,1721467024.481
1767511.0,1721467024.522
1762509.0,1721467024.561
1750729.0,1721467024.602
1735759.0,1721467024.642
1722949.0,1721467024.681
1715112.0,1721467024.721
1710736.0,1721467024.763
1708191.0,1721467024.802
1705708.0,1721467024.842
1702173.0,1721467024.883
1698996.0,1721467024.922
1696478.0,1721467024.962
1694209.0,1721467025.004
1692187.0,1721467025.042
1690821.0,1721467025.082
1690070.0,1721467025.123
1690652.0,1721467025.162
1691743.0,1721467025.2
1693377.0,1721467025.24
1695583.0,1721467025.28
1698513.0,1721467025.32
1699325.0,1721467025.361
1693997.0,1721467025.401
1687253.0,1721467025.441
1682811.0,1721467025.482
1679612.0,1721467025.519
1677580.0,1721467025.559
1676892.0,1721467025.601
1676388.0,1721467025.641
1675597.0,1721467025.681
1675238.0,1721467025.722
1674694.0,1721467025.761
1674754.0,1721467025.802
1675388.0,1721467025.842
1676495.0,1721467025.881
1677683.0,1721467025.921
1679941.0,1721467025.962
1681948.0,1721467026.002
1684950.0,1721467026.041
1689631.0,1721467026.083
1692411.0,1721467026.122
1695338.0,1721467026.162
1698987.0,1721467026.203
1699589.0,1721467026.242
1699605.0,1721467026.282
1700523.0,1721467026.321
1702332.0,1721467026.36
1705487.0,1721467026.401
1703223.0,1721467026.481
1705332.0,1721467026.441
1699919.0,1721467026.521
1695919.0,1721467026.562
1692975.0,1721467026.602
1691946.0,1721467026.642
1691301.0,1721467026.681
1690131.0,1721467026.72
1689421.0,1721467026.76
1689058.0,1721467026.802
1688816.0,1721467026.841
1689187.0,1721467026.874
1689427.0,1721467026.915
1689572.0,1721467026.954
1690782.0,1721467026.995
1692122.0,1721467027.035
1690420.0,1721467027.074
1684669.0,1721467027.114
1678841.0,1721467027.156
1674907.0,1721467027.195
1672265.0,1721467027.235
1671090.0,1721467027.276
1671041.0,1721467027.315
1670843.0,1721467027.355
1670879.0,1721467027.397
1671085.0,1721467027.435
1671613.0,1721467027.475
1672321.0,1721467027.516
1673483.0,1721467027.555
1674838.0,1721467027.59
1676640.0,1721467027.631
1678400.0,1721467027.663
1680325.0,1721467027.703
1682549.0,1721467027.742
1684745.0,1721467027.782
1686735.0,1721467027.822
1689062.0,1721467027.863
1690144.0,1721467027.902
1686588.0,1721467027.943
1681425.0,1721467027.985
1678514.0,1721467028.023
1677670.0,1721467028.061
1678014.0,1721467028.096
1678983.0,1721467028.135
1680068.0,1721467028.176
1683806.0,1721467028.216
1689784.0,1721467028.255
1690042.0,1721467028.295
1688257.0,1721467028.336
1687056.0,1721467028.376
1686539.0,1721467028.416
1687176.0,1721467028.457
1688174.0,1721467028.496
1689851.0,1721467028.536
1691400.0,1721467028.578
1693518.0,1721467028.616
1695302.0,1721467028.656
1697074.0,1721467028.697
1699272.0,1721467028.736
1701679.0,1721467028.777
1703186.0,1721467028.817
1701002.0,1721467028.852
1696929.0,1721467028.893
1694080.0,1721467028.926
1692385.0,1721467028.966
1691634.0,1721467029.003
1691515.0,1721467029.042
1691989.0,1721467029.081
1692282.0,1721467029.121
1692440.0,1721467029.163
1692699.0,1721467029.202
1693657.0,1721467029.242
1695019.0,1721467029.283
1696389.0,1721467029.323
1698286.0,1721467029.363
1700082.0,1721467029.404
1702374.0,1721467029.443
1704185.0,1721467029.483
1706430.0,1721467029.524
1708661.0,1721467029.564
1711156.0,1721467029.603
1712527.0,1721467029.644
1710071.0,1721467029.683
1706345.0,1721467029.723
1705082.0,1721467029.765
1704860.0,1721467029.803
1706004.0,1721467029.843
1708717.0,1721467029.884
1712212.0,1721467029.923
1714849.0,1721467029.964
1717313.0,1721467030.005
1723600.0,1721467030.041
1727623.0,1721467030.081
1728042.0,1721467030.123
1727642.0,1721467030.163
1727521.0,1721467030.202
1728430.0,1721467030.244
1730070.0,1721467030.283
1731771.0,1721467030.323
1733798.0,1721467030.365
1736361.0,1721467030.401
1738276.0,1721467030.442
1740597.0,1721467030.483
1742040.0,1721467030.522
1738752.0,1721467030.563
1735259.0,1721467030.604
1734068.0,1721467030.644
1733241.0,1721467030.684
1733881.0,1721467030.725
1735765.0,1721467030.764
1737220.0,1721467030.804
1738745.0,1721467030.845
1740439.0,1721467030.884
1742093.0,1721467030.924
1743998.0,1721467030.966
1746177.0,1721467031.004
1748681.0,1721467031.044
1751261.0,1721467031.085
1753898.0,1721467031.124
1756467.0,1721467031.165
1758917.0,1721467031.206
1761711.0,1721467031.245
1764240.0,1721467031.285
1764996.0,1721467031.326
1762136.0,1721467031.365
1757976.0,1721467031.402
1755645.0,1721467031.443
1754993.0,1721467031.482
1754785.0,1721467031.522
1755343.0,1721467031.564
1755343.0,1721467031.607
1756931.0,1721467031.647
1757748.0,1721467031.688
1758523.0,1721467031.727
1759473.0,1721467031.768
1760862.0,1721467031.808
1762196.0,1721467031.847
1763900.0,1721467031.887
1767571.0,1721467031.928
1772267.0,1721467031.968
1776837.0,1721467032.008
1782485.0,1721467032.049
1790099.0,1721467032.088
1789708.0,1721467032.128
1784381.0,1721467032.17
1778581.0,1721467032.208
1773426.0,1721467032.248
1769939.0,1721467032.289
1768329.0,1721467032.328
1766468.0,1721467032.369
1763737.0,1721467032.409
1760631.0,1721467032.448
1757966.0,1721467032.489
1756059.0,1721467032.53
1754811.0,1721467032.569
1755079.0,1721467032.609
1756579.0,1721467032.65
1758232.0,1721467032.688
1760963.0,1721467032.728
1764261.0,1721467032.77
1767354.0,1721467032.809
1767889.0,1721467032.849
1763793.0,1721467032.89
1758254.0,1721467032.93
1754252.0,1721467032.971
1751293.0,1721467033.011
1749616.0,1721467033.05
1749078.0,1721467033.091
1749096.0,1721467033.132
1749126.0,1721467033.163
1748789.0,1721467033.203
1748686.0,1721467033.244
1748848.0,1721467033.283
1749440.0,1721467033.323
1750513.0,1721467033.365
1751771.0,1721467033.403
1753018.0,1721467033.443
1754898.0,1721467033.484
1755426.0,1721467033.564
1756762.0,1721467033.523
1750413.0,1721467033.605
1744875.0,1721467033.644
1739375.0,1721467033.684
1732857.0,1721467033.765
1735200.0,1721467033.725
1730778.0,1721467033.845
1731611.0,1721467033.804
1727510.0,1721467033.963
1728184.0,1721467033.921
1727219.0,1721467033.994
1729654.0,1721467033.885
1727334.0,1721467034.032
1728000.0,1721467034.073
1728621.0,1721467034.112
1729938.0,1721467034.153
1730860.0,1721467034.194
1731866.0,1721467034.233
1733160.0,1721467034.274
1731690.0,1721467034.315
1725648.0,1721467034.352
1718293.0,1721467034.392
1713055.0,1721467034.435
1709615.0,1721467034.474
1707625.0,1721467034.514
1707115.0,1721467034.556
1706638.0,1721467034.594
1706034.0,1721467034.634
1705467.0,1721467034.675
1705355.0,1721467034.714
1706004.0,1721467034.755
1706888.0,1721467034.796
1708047.0,1721467034.835
1709726.0,1721467034.875
1711358.0,1721467034.916
1713372.0,1721467034.955
1715359.0,1721467034.995
1717193.0,1721467035.036
1717807.0,1721467035.075
1713316.0,1721467035.115
1706661.0,1721467035.157
1700851.0,1721467035.196
1696749.0,1721467035.234
1694097.0,1721467035.273
1692947.0,1721467035.313
1692938.0,1721467035.353
1692962.0,1721467035.394
1692402.0,1721467035.433
1692039.0,1721467035.474
1693158.0,1721467035.515
1694109.0,1721467035.555
1696579.0,1721467035.593
1700528.0,1721467035.634
1701519.0,1721467035.673
1703457.0,1721467035.714
1706681.0,1721467035.755
1707457.0,1721467035.794
1707982.0,1721467035.834
1707624.0,1721467035.875
1701726.0,1721467035.914
1693789.0,1721467035.954
1688250.0,1721467035.995
1684923.0,1721467036.034
1682755.0,1721467036.074
1681908.0,1721467036.115
1681192.0,1721467036.155
1680389.0,1721467036.194
1679492.0,1721467036.235
1678943.0,1721467036.275
1678825.0,1721467036.316
1679152.0,1721467036.356
1680081.0,1721467036.393
1681475.0,1721467036.433
1682755.0,1721467036.474
1684704.0,1721467036.514
1686539.0,1721467036.554
1688477.0,1721467036.595
1690797.0,1721467036.634
1692946.0,1721467036.675
1691823.0,1721467036.715
1686182.0,1721467036.755
1680450.0,1721467036.794
1676437.0,1721467036.835
1673739.0,1721467036.874
1672562.0,1721467036.914
1672496.0,1721467036.956
1672714.0,1721467036.994
1672951.0,1721467037.034
1673277.0,1721467037.075
1673921.0,1721467037.114
1674784.0,1721467037.155
1676046.0,1721467037.196
1677826.0,1721467037.235
1679651.0,1721467037.275
1681720.0,1721467037.316
1683934.0,1721467037.356
1686176.0,1721467037.395
1688298.0,1721467037.436
1690786.0,1721467037.475
1690995.0,1721467037.515
1686745.0,1721467037.555
1681367.0,1721467037.593
1677292.0,1721467037.634
1674600.0,1721467037.675
1673209.0,1721467037.714
1672977.0,1721467037.755
1673777.0,1721467037.796
1673760.0,1721467037.834
1674126.0,1721467037.874
1674725.0,1721467037.915
1675536.0,1721467037.955
1676866.0,1721467037.994
1678480.0,1721467038.036
1680367.0,1721467038.074
1682678.0,1721467038.115
1684904.0,1721467038.156
1687210.0,1721467038.195
1689311.0,1721467038.235
1691859.0,1721467038.276
1694274.0,1721467038.315
1696552.0,1721467038.356
1696650.0,1721467038.396
1692300.0,1721467038.435
1687803.0,1721467038.475
1684929.0,1721467038.516
1683381.0,1721467038.554
1683296.0,1721467038.593
1684083.0,1721467038.635
1685149.0,1721467038.674
1685786.0,1721467038.714
1686653.0,1721467038.756
1687654.0,1721467038.795
1688859.0,1721467038.835
1690170.0,1721467038.876
1692374.0,1721467038.916
1694572.0,1721467038.956
1696893.0,1721467038.995
1699245.0,1721467039.034
1701830.0,1721467039.074
1704428.0,1721467039.116
1704442.0,1721467039.155
1700426.0,1721467039.195
1695856.0,1721467039.237
1692917.0,1721467039.27
1691075.0,1721467039.31
1691064.0,1721467039.352
1691577.0,1721467039.39
1692728.0,1721467039.43
1693423.0,1721467039.471
1694172.0,1721467039.51
1695160.0,1721467039.551
1696084.0,1721467039.592
1697627.0,1721467039.632
1699955.0,1721467039.671
1702119.0,1721467039.712
1704455.0,1721467039.752
1706860.0,1721467039.791
1709508.0,1721467039.832
1711836.0,1721467039.871
1714154.0,1721467039.911
1716749.0,1721467039.954
1717443.0,1721467039.992
1713209.0,1721467040.033
1708202.0,1721467040.074
1704517.0,1721467040.113
1702544.0,1721467040.155
1701564.0,1721467040.195
1701835.0,1721467040.234
1702987.0,1721467040.275
1703477.0,1721467040.316
1704062.0,1721467040.356
1704940.0,1721467040.395
1706159.0,1721467040.431
1707175.0,1721467040.47
1709179.0,1721467040.51
1711019.0,1721467040.552
1713091.0,1721467040.59
1715139.0,1721467040.631
1717339.0,1721467040.672
1719569.0,1721467040.711
1719690.0,1721467040.751
1714763.0,1721467040.792
1709862.0,1721467040.831
1706584.0,1721467040.871
1704899.0,1721467040.912
1704225.0,1721467040.952
1705019.0,1721467040.991
1705582.0,1721467041.032
1706112.0,1721467041.071
1706289.0,1721467041.111
1706957.0,1721467041.154
1707730.0,1721467041.193
1708772.0,1721467041.233
1710245.0,1721467041.275
1711853.0,1721467041.314
1714037.0,1721467041.355
1715994.0,1721467041.396
1717508.0,1721467041.435
1714381.0,1721467041.475
1708955.0,1721467041.517
1704711.0,1721467041.556
1702446.0,1721467041.596
1701535.0,1721467041.629
1702203.0,1721467041.668
1703027.0,1721467041.709
1704076.0,1721467041.75
1704782.0,1721467041.789
1705475.0,1721467041.829
1706770.0,1721467041.87
1708147.0,1721467041.909
1709936.0,1721467041.95
1712200.0,1721467041.99
1714485.0,1721467042.029
1719214.0,1721467042.11
1716450.0,1721467042.069
1720468.0,1721467042.15
1716046.0,1721467042.19
1710309.0,1721467042.231
1705876.0,1721467042.27
1703290.0,1721467042.309
1701899.0,1721467042.351
1702139.0,1721467042.385
1703022.0,1721467042.419
1703388.0,1721467042.46
1704070.0,1721467042.497
1704749.0,1721467042.535
1705710.0,1721467042.575
1706998.0,1721467042.615
1708702.0,1721467042.655
1710412.0,1721467042.696
1712497.0,1721467042.736
1714847.0,1721467042.776
1717586.0,1721467042.817
1718012.0,1721467042.856
1714214.0,1721467042.894
1711251.0,1721467042.937
1707716.0,1721467042.975
1703723.0,1721467043.015
1700810.0,1721467043.056
1699710.0,1721467043.095
1699491.0,1721467043.136
1699725.0,1721467043.176
1700102.0,1721467043.215
1700372.0,1721467043.255
1701422.0,1721467043.296
1703166.0,1721467043.336
1705541.0,1721467043.376
1707368.0,1721467043.417
1709844.0,1721467043.456
1711937.0,1721467043.496
1714181.0,1721467043.538
1716364.0,1721467043.577
1717953.0,1721467043.616
1715332.0,1721467043.655
1709614.0,1721467043.694
1705093.0,1721467043.733
1702817.0,1721467043.772
1701826.0,1721467043.811
1702333.0,1721467043.85
1703288.0,1721467043.889
1704235.0,1721467043.928
1704987.0,1721467043.967
1705783.0,1721467044.006
1707132.0,1721467044.045
1707132.0,1721467044.084
1708709.0,1721467044.123
1710577.0,1721467044.162
1712813.0,1721467044.201
1715137.0,1721467044.24
1717415.0,1721467044.279
1721843.0,1721467044.357
1720174.0,1721467044.318
1718809.0,1721467044.396
1713263.0,1721467044.435
1709511.0,1721467044.474
1707687.0,1721467044.513
1706677.0,1721467044.591
1707643.0,1721467044.63
1708271.0,1721467044.669
1706384.0,1721467044.552
1708971.0,1721467044.708
1710017.0,1721467044.747
1711124.0,1721467044.786
1712267.0,1721467044.825
1714118.0,1721467044.864
1718203.0,1721467044.942
1720449.0,1721467044.981
1715966.0,1721467044.903
1722895.0,1721467045.02
1725544.0,1721467045.059
1725848.0,1721467045.098
1721409.0,1721467045.137
1716312.0,1721467045.176
1710690.0,1721467045.254
1712679.0,1721467045.215
1710158.0,1721467045.293
1710503.0,1721467045.332
1711307.0,1721467045.371
1712235.0,1721467045.41
1712789.0,1721467045.449
1713672.0,1721467045.488
1714973.0,1721467045.527
1715938.0,1721467045.566
1717521.0,1721467045.605
1719324.0,1721467045.644
1721440.0,1721467045.683
1723721.0,1721467045.722
1725719.0,1721467045.761
1728003.0,1721467045.8
1728460.0,1721467045.839
1724477.0,1721467045.878
1719102.0,1721467045.917
1715360.0,1721467045.956
1713425.0,1721467045.995
1712991.0,1721467046.034
1714008.0,1721467046.112
1713537.0,1721467046.073
1714782.0,1721467046.151
1715046.0,1721467046.19
1716013.0,1721467046.229
1718105.0,1721467046.307
1716765.0,1721467046.268
1721909.0,1721467046.385
1720045.0,1721467046.346
1724509.0,1721467046.424
1726552.0,1721467046.463
1729260.0,1721467046.502
1731651.0,1721467046.541
1734099.0,1721467046.58
1733351.0,1721467046.619
1728513.0,1721467046.658
1724055.0,1721467046.697
1721737.0,1721467046.736
1721126.0,1721467046.775
1721358.0,1721467046.814
1722717.0,1721467046.853
1723932.0,1721467046.892
1724824.0,1721467046.931
1725587.0,1721467046.97
1726717.0,1721467047.009
1727958.0,1721467047.048
1729869.0,1721467047.087
1731724.0,1721467047.126
1733894.0,1721467047.165
1736049.0,1721467047.204
1738034.0,1721467047.243
1740425.0,1721467047.282
1742795.0,1721467047.321
1741383.0,1721467047.36
1736072.0,1721467047.399
1731485.0,1721467047.438
1728673.0,1721467047.477
1727085.0,1721467047.516
1727435.0,1721467047.555
1728102.0,1721467047.594
1729275.0,1721467047.633
1730168.0,1721467047.672
1730713.0,1721467047.711
1731986.0,1721467047.75
1733191.0,1721467047.789
1733191.0,1721467047.828
1734777.0,1721467047.867
1736754.0,1721467047.906
1739039.0,1721467047.945
1741088.0,1721467047.984
1743378.0,1721467048.023
1741950.0,1721467048.062
1736947.0,1721467048.101
1732251.0,1721467048.14
1729987.0,1721467048.179
1728672.0,1721467048.218
1728930.0,1721467048.257
1730006.0,1721467048.296
1731231.0,1721467048.335
1732048.0,1721467048.374
1732871.0,1721467048.413
1733819.0,1721467048.452
1735407.0,1721467048.491
1736643.0,1721467048.53
1738654.0,1721467048.569
1740811.0,1721467048.608
1743051.0,1721467048.647
1745235.0,1721467048.686
1744299.0,1721467048.725
1739145.0,1721467048.764
1734470.0,1721467048.803
1731770.0,1721467048.842
1730711.0,1721467048.881
1730693.0,1721467048.92
1731866.0,1721467048.959
1732938.0,1721467048.998
1733617.0,1721467049.037
1734701.0,1721467049.076
1736654.0,1721467049.115
1739882.0,1721467049.155
1744115.0,1721467049.195
1748636.0,1721467049.235
1753210.0,1721467049.275
1758544.0,1721467049.315
1763815.0,1721467049.355
1769867.0,1721467049.395
1775745.0,1721467049.435
1774618.0,1721467049.475
1770300.0,1721467049.515
1765096.0,1721467049.555
1760649.0,1721467049.595
1758202.0,1721467049.635
1757393.0,1721467049.675
1757761.0,1721467049.715
1757478.0,1721467049.755
1757009.0,1721467049.795
1757435.0,1721467049.835
1758393.0,1721467049.875
1759258.0,1721467049.915
1760581.0,1721467049.955
1762192.0,1721467049.995
1763322.0,1721467050.035
1764776.0,1721467050.075
1766602.0,1721467050.115
1768091.0,1721467050.155
1765664.0,1721467050.195
1759298.0,1721467050.235
1754148.0,1721467050.275
1750816.0,1721467050.315
1749030.0,1721467050.355
1748353.0,1721467050.395
1748405.0,1721467050.435
1748931.0,1721467050.475
1749348.0,1721467050.515
1749332.0,1721467050.555
1749545.0,1721467050.595
1750377.0,1721467050.635
1751294.0,1721467050.675
1752388.0,1721467050.715
1753772.0,1721467050.755
1755327.0,1721467050.795
1756983.0,1721467050.835
1757554.0,1721467050.875
1753078.0,1721467050.915
1747156.0,1721467050.955
1742986.0,1721467050.995
1741455.0,1721467051.035
1742672.0,1721467051.075
1745933.0,1721467051.115
1746749.0,1721467051.155
1751318.0,1721467051.195
1756726.0,1721467051.235
1761398.0,1721467051.275
1767602.0,1721467051.315
1772210.0,1721467051.355
1773018.0,1721467051.395
1772423.0,1721467051.435
1771682.0,1721467051.475
1769729.0,1721467051.515
1769324.0,1721467051.555
1765828.0,1721467051.595
1757694.0,1721467051.635
1750984.0,1721467051.675
1746824.0,1721467051.715
1744242.0,1721467051.755
1742469.0,1721467051.795
1741686.0,1721467051.835
1741023.0,1721467051.875
1740408.0,1721467051.915
1739969.0,1721467051.955
1740405.0,1721467051.995
1741069.0,1721467052.035
1743043.0,1721467052.075
1744752.0,1721467052.115
1746487.0,1721467052.155
1748326.0,1721467052.195
1749904.0,1721467052.235
1745817.0,1721467052.275
1738841.0,1721467052.315
1733357.0,1721467052.355
1730031.0,1721467052.395
1728303.0,1721467052.435
1727825.0,1721467052.475
1728138.0,1721467052.515
1728286.0,1721467052.555
1728289.0,1721467052.595
1728578.0,1721467052.635
1728858.0,1721467052.675
1729658.0,1721467052.715
1730809.0,1721467052.755
1731963.0,1721467052.795
1733478.0,1721467052.835
1735125.0,1721467052.875
1733861.0,1721467052.955
1736643.0,1721467052.915
1726513.0,1721467052.995
1720218.0,1721467053.035
1716002.0,1721467053.075
1713658.0,1721467053.115
1712845.0,1721467053.155
1712609.0,1721467053.195
1712034.0,1721467053.235
1711788.0,1721467053.275
1711028.0,1721467053.315
1710584.0,1721467053.355
1710533.0,1721467053.395
1711204.0,1721467053.435
1712084.0,1721467053.475
1713401.0,1721467053.515
1715017.0,1721467053.555
1717020.0,1721467053.595
1718970.0,1721467053.635
1720109.0,1721467053.675
1716510.0,1721467053.715
1710191.0,1721467053.755
1705441.0,1721467053.795
1702755.0,1721467053.835
1701556.0,1721467053.875
1701506.0,1721467053.915
1702156.0,1721467053.955
1702503.0,1721467053.995
1702663.0,1721467054.035
1703019.0,1721467054.075
1703705.0,1721467054.115
1705024.0,1721467054.155
1707145.0,1721467054.195
1709704.0,1721467054.235
1712763.0,1721467054.275
1715431.0,1721467054.315
1718106.0,1721467054.355
1720486.0,1721467054.395
1719830.0,1721467054.435
1714412.0,1721467054.475
1708548.0,1721467054.515
1704955.0,1721467054.555
1703066.0,1721467054.595
1703101.0,1721467054.635
1705160.0,1721467054.675
1707391.0,1721467054.715
1708842.0,1721467054.755
1711761.0,1721467054.795
1713026.0,1721467054.835
1714336.0,1721467054.875
1721250.0,1721467054.915
1727960.0,1721467054.955
1732552.0,1721467054.995
1737363.0,1721467055.035
1744706.0,1721467055.075
1746153.0,1721467055.115
1745651.0,1721467055.155
1745999.0,1721467055.195
1743372.0,1721467055.235
1736811.0,1721467055.275
1730673.0,1721467055.315
1726884.0,1721467055.355
1724464.0,1721467055.395
1723117.0,1721467055.488
1722664.0,1721467055.528
1722678.0,1721467055.569
1722074.0,1721467055.608
1721666.0,1721467055.649
1721397.0,1721467055.689
1721133.0,1721467055.728
1721237.0,1721467055.768
1722065.0,1721467055.809
1722511.0,1721467055.849
1723454.0,1721467055.888
1724162.0,1721467055.929
1725198.0,1721467055.968
1726105.0,1721467056.009
1727379.0,1721467056.051
1728445.0,1721467056.087
1726830.0,1721467056.127
1721295.0,1721467056.169
1716797.0,1721467056.208
1713761.0,1721467056.249
1712194.0,1721467056.289
1712354.0,1721467056.329
1712354.0,1721467056.364
1712073.0,1721467056.405
1712391.0,1721467056.445
1712284.0,1721467056.484
1712348.0,1721467056.525
1712564.0,1721467056.564
1713136.0,1721467056.604
1713781.0,1721467056.646
1714880.0,1721467056.685
1715868.0,1721467056.725
1717469.0,1721467056.766
1718914.0,1721467056.805
1720354.0,1721467056.846
1722718.0,1721467056.886
1725594.0,1721467056.925
1726774.0,1721467056.965
1725283.0,1721467057.006
1724286.0,1721467057.046
1723764.0,1721467057.086
1725844.0,1721467057.127
1728651.0,1721467057.167
1733631.0,1721467057.208
1739744.0,1721467057.25
1741420.0,1721467057.287
1740381.0,1721467057.328
1739638.0,1721467057.369
1741176.0,1721467057.408
1743896.0,1721467057.449
1746056.0,1721467057.49
1748263.0,1721467057.529
1750265.0,1721467057.569
1752418.0,1721467057.61
1754569.0,1721467057.65
1756669.0,1721467057.685
1759142.0,1721467057.726
1761137.0,1721467057.765
1760933.0,1721467057.805
1756992.0,1721467057.847
1753936.0,1721467057.885
1752532.0,1721467057.926
1752275.0,1721467057.967
1752549.0,1721467058.006
1753535.0,1721467058.047
1754463.0,1721467058.087
1756658.0,1721467058.166
1757303.0,1721467058.207
1755605.0,1721467058.126
1758540.0,1721467058.247
1759800.0,1721467058.286
1761518.0,1721467058.328
1763466.0,1721467058.367
1765352.0,1721467058.408
1767425.0,1721467058.45
1769676.0,1721467058.488
1771945.0,1721467058.528
1773188.0,1721467058.569
1770651.0,1721467058.608
1766876.0,1721467058.649
1763948.0,1721467058.69
1763123.0,1721467058.729
1763375.0,1721467058.769
1764072.0,1721467058.811
1765409.0,1721467058.851
1766323.0,1721467058.89
1767452.0,1721467058.928
1768280.0,1721467058.967
1769265.0,1721467059.007
1771463.0,1721467059.049
1772968.0,1721467059.087
1775742.0,1721467059.127
1780817.0,1721467059.169
1782079.0,1721467059.208
1782799.0,1721467059.248
1785036.0,1721467059.289
1786609.0,1721467059.328
1783729.0,1721467059.368
1778009.0,1721467059.409
1773942.0,1721467059.449
1770485.0,1721467059.488
1769556.0,1721467059.529
1771243.0,1721467059.568
1772147.0,1721467059.608
1774310.0,1721467059.65
1776544.0,1721467059.688
1777081.0,1721467059.729
1778768.0,1721467059.77
1780895.0,1721467059.809
1783502.0,1721467059.85
1787098.0,1721467059.891
1790200.0,1721467059.93
1792238.0,1721467059.97
1795364.0,1721467060.012
1798875.0,1721467060.043
1801250.0,1721467060.083
1803305.0,1721467060.124
1806940.0,1721467060.163
1809637.0,1721467060.203
1810998.0,1721467060.245
1810393.0,1721467060.283
1810257.0,1721467060.323
1811154.0,1721467060.364
1813653.0,1721467060.404
1820604.0,1721467060.444
1818786.0,1721467060.525
1821447.0,1721467060.485
1817542.0,1721467060.564
1814405.0,1721467060.605
1814233.0,1721467060.645
1813591.0,1721467060.725
1814061.0,1721467060.684
1813431.0,1721467060.762
1815546.0,1721467060.842
1814350.0,1721467060.8
1818129.0,1721467060.912
1819314.0,1721467060.951
1818659.0,1721467060.99
1815056.0,1721467061.031
1809707.0,1721467061.072
1816565.0,1721467060.874
1804383.0,1721467061.111
1800877.0,1721467061.15
1799022.0,1721467061.187
1798117.0,1721467061.227
1797214.0,1721467061.267
1796781.0,1721467061.308
1795764.0,1721467061.347
1795034.0,1721467061.387
1795216.0,1721467061.429
1795210.0,1721467061.467
1795227.0,1721467061.507
1795755.0,1721467061.548
1796444.0,1721467061.587
1797339.0,1721467061.628
1798155.0,1721467061.669
1797604.0,1721467061.708
1793867.0,1721467061.748
1786798.0,1721467061.789
1780712.0,1721467061.829
1776477.0,1721467061.869
1773818.0,1721467061.91
1772270.0,1721467061.949
1771178.0,1721467061.99
1770129.0,1721467062.032
1769249.0,1721467062.071
1769689.0,1721467062.111
1770040.0,1721467062.152
1769557.0,1721467062.191
1770317.0,1721467062.232
1770576.0,1721467062.273
1769990.0,1721467062.312
1771693.0,1721467062.353
1775144.0,1721467062.392
1778450.0,1721467062.431
1780709.0,1721467062.471
1783084.0,1721467062.506
1787254.0,1721467062.545
1788580.0,1721467062.585
1787260.0,1721467062.627
1785069.0,1721467062.665
1783456.0,1721467062.705
1783083.0,1721467062.746
1783079.0,1721467062.785
1782605.0,1721467062.826
1781586.0,1721467062.866
1781503.0,1721467062.905
1781527.0,1721467062.946
1781027.0,1721467062.987
1780847.0,1721467063.026
1781512.0,1721467063.066
1781773.0,1721467063.107
1782095.0,1721467063.146
1781391.0,1721467063.186
1777244.0,1721467063.226
1771436.0,1721467063.259
1765388.0,1721467063.292
1760969.0,1721467063.333
1759646.0,1721467063.37
1759702.0,1721467063.411
1760112.0,1721467063.452
1760254.0,1721467063.491
1760288.0,1721467063.531
1760300.0,1721467063.572
1760213.0,1721467063.61
1760213.0,1721467063.646
1760513.0,1721467063.687
1761058.0,1721467063.726
1761521.0,1721467063.766
1762800.0,1721467063.808
1763900.0,1721467063.846
1764401.0,1721467063.886
1765747.0,1721467063.928
1767183.0,1721467063.967
1766999.0,1721467064.007
1762936.0,1721467064.048
1756512.0,1721467064.087
1751614.0,1721467064.127
1748570.0,1721467064.168
1747650.0,1721467064.208
1747933.0,1721467064.247
1749630.0,1721467064.288
1751631.0,1721467064.328
1752661.0,1721467064.367
1755306.0,1721467064.406
1758695.0,1721467064.444
1761696.0,1721467064.48
1763596.0,1721467064.522
1769224.0,1721467064.554
1775579.0,1721467064.592
1777285.0,1721467064.633
1777245.0,1721467064.672
1777401.0,1721467064.712
1776742.0,1721467064.753
1776648.0,1721467064.792
1772470.0,1721467064.832
1765979.0,1721467064.873
1760648.0,1721467064.912
1756716.0,1721467064.952
1754270.0,1721467064.994
1752842.0,1721467065.032
1752228.0,1721467065.072
1752300.0,1721467065.113
1751470.0,1721467065.152
1751639.0,1721467065.193
1752466.0,1721467065.233
1752919.0,1721467065.272
1753798.0,1721467065.312
1755127.0,1721467065.354
1756493.0,1721467065.393
1757910.0,1721467065.433
1759506.0,1721467065.473
1761478.0,1721467065.512
1763275.0,1721467065.552
1762890.0,1721467065.594
1758274.0,1721467065.632
1753677.0,1721467065.673
1751104.0,1721467065.714
1749430.0,1721467065.753
1748866.0,1721467065.794
1749506.0,1721467065.835
1750157.0,1721467065.872
1750602.0,1721467065.912
1751506.0,1721467065.954
1752127.0,1721467065.993
1752997.0,1721467066.033
1754015.0,1721467066.073
1755488.0,1721467066.112
1757276.0,1721467066.152
1759548.0,1721467066.194
1762035.0,1721467066.233
1765182.0,1721467066.273
1770396.0,1721467066.314
1773716.0,1721467066.353
1776782.0,1721467066.394
1781393.0,1721467066.434
1784728.0,1721467066.473
1790042.0,1721467066.513
1796823.0,1721467066.554
1798191.0,1721467066.594
1797795.0,1721467066.633
1796590.0,1721467066.674
1795131.0,1721467066.713
1793631.0,1721467066.753
1791710.0,1721467066.796
1790280.0,1721467066.832
1788848.0,1721467066.873
1788047.0,1721467066.914
1787806.0,1721467066.953
1787434.0,1721467066.994
1786991.0,1721467067.035
1787024.0,1721467067.074
1787044.0,1721467067.114
1786797.0,1721467067.154
1784690.0,1721467067.193
1779189.0,1721467067.233
1772532.0,1721467067.274
1767761.0,1721467067.313
1764760.0,1721467067.354
1763064.0,1721467067.395
1762019.0,1721467067.434
1761091.0,1721467067.473
1760090.0,1721467067.512
1759115.0,1721467067.551
1758604.0,1721467067.59
1758181.0,1721467067.629
1758090.0,1721467067.668
1758576.0,1721467067.707
1759204.0,1721467067.746
1759567.0,1721467067.785
1760698.0,1721467067.824
1761797.0,1721467067.863
1762503.0,1721467067.902
1759899.0,1721467067.941
1753919.0,1721467067.98
1747606.0,1721467068.019
1742766.0,1721467068.058
1739330.0,1721467068.097
1737427.0,1721467068.136
1736425.0,1721467068.175
1735573.0,1721467068.214
1734646.0,1721467068.253
1733610.0,1721467068.292
1732917.0,1721467068.331
1732552.0,1721467068.37
1732502.0,1721467068.409
1732968.0,1721467068.448
1733461.0,1721467068.487
1734394.0,1721467068.526
1735277.0,1721467068.565
1736412.0,1721467068.604
1738330.0,1721467068.643
1735395.0,1721467068.682
1730088.0,1721467068.721
1726583.0,1721467068.76
1724209.0,1721467068.799
1722440.0,1721467068.838
1722181.0,1721467068.877
1723066.0,1721467068.916
1724862.0,1721467068.955
1727634.0,1721467068.994
1729696.0,1721467069.033
1731300.0,1721467069.072
1732348.0,1721467069.111
1733179.0,1721467069.15
1734439.0,1721467069.189
1735590.0,1721467069.228
1736627.0,1721467069.267
1737972.0,1721467069.306
1739695.0,1721467069.345
1741156.0,1721467069.384
1741417.0,1721467069.423
1736596.0,1721467069.462
1730116.0,1721467069.501
1725760.0,1721467069.54
1723302.0,1721467069.579
1722096.0,1721467069.618
1721769.0,1721467069.657
1721758.0,1721467069.696
1721726.0,1721467069.735
1721499.0,1721467069.774
1721608.0,1721467069.813
1723367.0,1721467069.852
1726697.0,1721467069.891
1727417.0,1721467069.93
1728567.0,1721467069.969
1731146.0,1721467070.008
1734225.0,1721467070.047
1738120.0,1721467070.086
1743844.0,1721467070.125
1736103.0,1721467070.164
1722803.0,1721467070.203
1710868.0,1721467070.242
1704327.0,1721467070.281
1700575.0,1721467070.32
1698871.0,1721467070.359
1700413.0,1721467070.398
1701484.0,1721467070.437
1702153.0,1721467070.476
1703351.0,1721467070.515
1704384.0,1721467070.554
1705423.0,1721467070.593
1706456.0,1721467070.632
1708038.0,1721467070.671
1709845.0,1721467070.71
1711943.0,1721467070.749
1714401.0,1721467070.788
1717500.0,1721467070.827
1720743.0,1721467070.866
1721957.0,1721467070.905
1716960.0,1721467070.944
1711410.0,1721467070.983
1707967.0,1721467071.022
1705880.0,1721467071.061
1705526.0,1721467071.1
1705841.0,1721467071.139
1706020.0,1721467071.178
1706110.0,1721467071.217
1705882.0,1721467071.256
1706275.0,1721467071.295
1706509.0,1721467071.334
1707125.0,1721467071.373
1708159.0,1721467071.412
1709602.0,1721467071.451
1712876.0,1721467071.529
1711250.0,1721467071.49
1714693.0,1721467071.568
1716544.0,1721467071.607
1718406.0,1721467071.646
1715518.0,1721467071.685
1708902.0,1721467071.724
1702934.0,1721467071.764
1699008.0,1721467071.804
1696640.0,1721467071.844
1695640.0,1721467071.884
1695617.0,1721467071.924
1695256.0,1721467071.964
1694940.0,1721467072.004
1694895.0,1721467072.044
1694948.0,1721467072.084
1695450.0,1721467072.124
1696432.0,1721467072.164
1697776.0,1721467072.204
1699664.0,1721467072.244
1701373.0,1721467072.284
1703656.0,1721467072.324
1705842.0,1721467072.364
1708182.0,1721467072.404
1710047.0,1721467072.444
1707437.0,1721467072.484
1701226.0,1721467072.524
1696322.0,1721467072.564
1693431.0,1721467072.604
1692132.0,1721467072.644
1692092.0,1721467072.684
1693060.0,1721467072.724
1693699.0,1721467072.764
1694743.0,1721467072.804
1695455.0,1721467072.844
1696918.0,1721467072.884
1698397.0,1721467072.924
1700046.0,1721467072.964
1701877.0,1721467073.004
1704295.0,1721467073.044
1704295.0,1721467073.084
1706627.0,1721467073.124
1709038.0,1721467073.164
1711742.0,1721467073.204
1714369.0,1721467073.244
1716541.0,1721467073.284
1715704.0,1721467073.324
1710378.0,1721467073.364
1705697.0,1721467073.404
1702753.0,1721467073.444
1701530.0,1721467073.484
1701612.0,1721467073.524
1702534.0,1721467073.564
1703713.0,1721467073.604
1704422.0,1721467073.644
1705325.0,1721467073.684
1705984.0,1721467073.724
1707456.0,1721467073.764
1708795.0,1721467073.804
1710654.0,1721467073.844
1712652.0,1721467073.884
1714432.0,1721467073.924
1716317.0,1721467073.964
1718526.0,1721467074.004
1720681.0,1721467074.044
1722358.0,1721467074.084
1719367.0,1721467074.124
1713752.0,1721467074.164
1709306.0,1721467074.204
1706867.0,1721467074.244
1705894.0,1721467074.284
1706096.0,1721467074.324
1706798.0,1721467074.364
1707420.0,1721467074.404
1707970.0,1721467074.444
1708286.0,1721467074.484
1709112.0,1721467074.524
1710024.0,1721467074.564
1711225.0,1721467074.604
1712924.0,1721467074.644
1714540.0,1721467074.684
1716893.0,1721467074.724
1718807.0,1721467074.764
1721005.0,1721467074.804
1722441.0,1721467074.844
1718397.0,1721467074.884
1713305.0,1721467074.924
1709860.0,1721467074.964
1708342.0,1721467075.004
1708565.0,1721467075.044
1709495.0,1721467075.084
1710914.0,1721467075.124
1712057.0,1721467075.164
1712859.0,1721467075.204
1713891.0,1721467075.244
1715008.0,1721467075.284
1716824.0,1721467075.324
1718822.0,1721467075.364
1720979.0,1721467075.404
1723255.0,1721467075.444
1725690.0,1721467075.484
1728096.0,1721467075.524
1729562.0,1721467075.564
1725424.0,1721467075.604
1719478.0,1721467075.644
1715333.0,1721467075.684
1712602.0,1721467075.724
1711682.0,1721467075.764
1711813.0,1721467075.804
1712278.0,1721467075.844
1712668.0,1721467075.884
1713059.0,1721467075.924
1713513.0,1721467075.964
1714507.0,1721467076.004
1715730.0,1721467076.044
1717020.0,1721467076.084
1718960.0,1721467076.124
1721020.0,1721467076.164
1723153.0,1721467076.204
1725508.0,1721467076.244
1726683.0,1721467076.284
1721981.0,1721467076.324
1715539.0,1721467076.364
1710735.0,1721467076.404
1708006.0,1721467076.444
1706717.0,1721467076.484
1706732.0,1721467076.524
1707319.0,1721467076.564
1708068.0,1721467076.604
1708794.0,1721467076.644
1709478.0,1721467076.684
1710414.0,1721467076.724
1711613.0,1721467076.764
1713225.0,1721467076.804
1714873.0,1721467076.844
1716700.0,1721467076.884
1718740.0,1721467076.924
1721293.0,1721467076.964
1723712.0,1721467077.004
1724269.0,1721467077.044
1718965.0,1721467077.084
1712830.0,1721467077.124
1708259.0,1721467077.164
1705521.0,1721467077.204
1704227.0,1721467077.244
1704697.0,1721467077.284
1704972.0,1721467077.324
1705190.0,1721467077.364
1705364.0,1721467077.404
1705538.0,1721467077.444
1706192.0,1721467077.484
1707089.0,1721467077.524
1708204.0,1721467077.564
1709923.0,1721467077.604
1711629.0,1721467077.644
1713501.0,1721467077.684
1715534.0,1721467077.724
1717696.0,1721467077.764
1719378.0,1721467077.804
1715993.0,1721467077.844
1709537.0,1721467077.884
1704939.0,1721467077.924
1701995.0,1721467077.964
1700802.0,1721467078.004
1701263.0,1721467078.044
1701819.0,1721467078.084
1702183.0,1721467078.124
1702460.0,1721467078.164
1703106.0,1721467078.204
1704270.0,1721467078.244
1705355.0,1721467078.284
1707308.0,1721467078.324
1709266.0,1721467078.364
1711494.0,1721467078.404
1713923.0,1721467078.444
1716350.0,1721467078.484
1719268.0,1721467078.524
1721944.0,1721467078.564
1723304.0,1721467078.604
1719786.0,1721467078.644
1713955.0,1721467078.684
1709793.0,1721467078.724
1707440.0,1721467078.764
1706596.0,1721467078.804
1707225.0,1721467078.844
1708262.0,1721467078.884
1709202.0,1721467078.924
1709202.0,1721467078.964
1709921.0,1721467079.004
1710953.0,1721467079.044
1712187.0,1721467079.084
1713706.0,1721467079.124
1715803.0,1721467079.164
1717933.0,1721467079.204
1720496.0,1721467079.244
1724263.0,1721467079.284
1727778.0,1721467079.317
1731006.0,1721467079.357
1730725.0,1721467079.399
1724890.0,1721467079.438
1718901.0,1721467079.478
1715059.0,1721467079.519
1712768.0,1721467079.558
1714250.0,1721467079.598
1716110.0,1721467079.639
1716754.0,1721467079.679
1715686.0,1721467079.718
1715156.0,1721467079.76
1715596.0,1721467079.797
1714883.0,1721467079.834
1714362.0,1721467079.876
1715717.0,1721467079.915
1717025.0,1721467079.948
1718511.0,1721467079.99
1720296.0,1721467080.025
1721256.0,1721467080.064
1718243.0,1721467080.105
1711388.0,1721467080.144
1705523.0,1721467080.184
1701656.0,1721467080.226
1699219.0,1721467080.265
1698312.0,1721467080.304
1698583.0,1721467080.345
1698735.0,1721467080.384
1698779.0,1721467080.424
1702404.0,1721467080.625
1698748.0,1721467080.466
1704356.0,1721467080.665
1706230.0,1721467080.706
1699049.0,1721467080.504
1699665.0,1721467080.545
1704680.0,1721467080.745
1700609.0,1721467080.586
1699132.0,1721467080.785
1693889.0,1721467080.826
1690584.0,1721467080.866
1689165.0,1721467080.905
1689034.0,1721467080.946
1689774.0,1721467080.985
1690432.0,1721467081.024
1690979.0,1721467081.066
1691634.0,1721467081.104
1694030.0,1721467081.145
1697218.0,1721467081.186
1699878.0,1721467081.225
1702034.0,1721467081.266
1706392.0,1721467081.307
1710236.0,1721467081.346
1714564.0,1721467081.384
1714260.0,1721467081.426
1714971.0,1721467081.465
1719051.0,1721467081.496
1722348.0,1721467081.537
1727265.0,1721467081.577
1728792.0,1721467081.617
1728306.0,1721467081.658
1724943.0,1721467081.737
1720602.0,1721467081.817
1718887.0,1721467081.898
1719532.0,1721467081.858
1726760.0,1721467081.697
1722796.0,1721467081.778
1718855.0,1721467081.937
1720662.0,1721467082.098
1718959.0,1721467081.978
1721050.0,1721467082.139
1719199.0,1721467082.019
1719683.0,1721467082.058
1715141.0,1721467082.178
1707833.0,1721467082.219
1702741.0,1721467082.257
1698998.0,1721467082.289
1696762.0,1721467082.329
1695653.0,1721467082.367
1696413.0,1721467082.404
1696577.0,1721467082.444
1696517.0,1721467082.485
1696628.0,1721467082.524
1697557.0,1721467082.565
1698125.0,1721467082.606
1699023.0,1721467082.646
1700178.0,1721467082.686
1701742.0,1721467082.727
1703336.0,1721467082.766
1705088.0,1721467082.806
1706727.0,1721467082.848
1707229.0,1721467082.886
1702421.0,1721467082.926
1695694.0,1721467082.967
1687560.0,1721467083.047
1690767.0,1721467083.006
1686555.0,1721467083.087
1686632.0,1721467083.126
1686867.0,1721467083.166
1688326.0,1721467083.208
1687954.0,1721467083.247
1686945.0,1721467083.287
1685446.0,1721467083.328
1686040.0,1721467083.404
1685551.0,1721467083.367
1687324.0,1721467083.446
1689347.0,1721467083.484
1691429.0,1721467083.525
1694534.0,1721467083.605
1692874.0,1721467083.566
1696085.0,1721467083.646
1696872.0,1721467083.687
1693098.0,1721467083.726
1686124.0,1721467083.766
1680160.0,1721467083.805
1676020.0,1721467083.845
1673604.0,1721467083.884
1672658.0,1721467083.925
1672113.0,1721467083.965
1672210.0,1721467084.005
1672021.0,1721467084.046
1672036.0,1721467084.085
1672529.0,1721467084.125
1673355.0,1721467084.166
1674375.0,1721467084.205
1675516.0,1721467084.246
1676415.0,1721467084.286
1677783.0,1721467084.325
1679418.0,1721467084.365
1681212.0,1721467084.406
1683133.0,1721467084.446
1685334.0,1721467084.486
1687583.0,1721467084.524
1687651.0,1721467084.564
1682847.0,1721467084.605
1676281.0,1721467084.647
1671151.0,1721467084.684
1667810.0,1721467084.725
1666256.0,1721467084.766
1665662.0,1721467084.805
1665499.0,1721467084.846
1665499.0,1721467084.882
1665200.0,1721467084.922
1665038.0,1721467084.962
1665111.0,1721467085.003
1665376.0,1721467085.042
1665624.0,1721467085.082
1666286.0,1721467085.123
1667591.0,1721467085.162
1669024.0,1721467085.202
1670816.0,1721467085.244
1673126.0,1721467085.282
1674892.0,1721467085.323
1678463.0,1721467085.364
1681512.0,1721467085.403
1678906.0,1721467085.444
1677911.0,1721467085.484
1680977.0,1721467085.523
1686407.0,1721467085.563
1692059.0,1721467085.604
1698782.0,1721467085.645
1703831.0,1721467085.685
1705882.0,1721467085.727
1706845.0,1721467085.765
1708193.0,1721467085.805
1709097.0,1721467085.847
1709573.0,1721467085.886
1710580.0,1721467085.926
1711868.0,1721467085.967
1712967.0,1721467086.006
1714411.0,1721467086.047
1716262.0,1721467086.087
1718484.0,1721467086.126
1722711.0,1721467086.167
1726147.0,1721467086.208
1725062.0,1721467086.247
1720721.0,1721467086.287
1717756.0,1721467086.328
1715887.0,1721467086.367
1715408.0,1721467086.407
1715284.0,1721467086.449
1716208.0,1721467086.487
1716874.0,1721467086.527
1718452.0,1721467086.607
1717760.0,1721467086.568
1719993.0,1721467086.648
1721702.0,1721467086.689
1723041.0,1721467086.725
1725335.0,1721467086.766
1728143.0,1721467086.807
1730725.0,1721467086.847
1733250.0,1721467086.886
1735933.0,1721467086.928
1738309.0,1721467086.967
1737406.0,1721467087.007
1732274.0,1721467087.047
1728470.0,1721467087.086
1726390.0,1721467087.126
1725542.0,1721467087.167
1725903.0,1721467087.206
1726957.0,1721467087.247
1728133.0,1721467087.287
1728726.0,1721467087.326
1729392.0,1721467087.366
1730706.0,1721467087.407
1732290.0,1721467087.447
1734771.0,1721467087.486
1737472.0,1721467087.528
1740422.0,1721467087.567
1743049.0,1721467087.607
1745842.0,1721467087.649
1748062.0,1721467087.687
1749517.0,1721467087.727
1748627.0,1721467087.768
1743939.0,1721467087.807
1739921.0,1721467087.848
1737881.0,1721467087.889
1737513.0,1721467087.926
1738358.0,1721467087.966
1739379.0,1721467088.007
1740419.0,1721467088.047
1741558.0,1721467088.087
1742882.0,1721467088.128
1744279.0,1721467088.167
1745985.0,1721467088.208
1748071.0,1721467088.25
1749646.0,1721467088.286
1752017.0,1721467088.326
1754070.0,1721467088.359
1756196.0,1721467088.398
1758685.0,1721467088.439
1760992.0,1721467088.479
1760612.0,1721467088.518
1755352.0,1721467088.559
1751411.0,1721467088.6
1748837.0,1721467088.639
1748169.0,1721467088.679
1748278.0,1721467088.72
1749184.0,1721467088.759
1750430.0,1721467088.799
1751406.0,1721467088.841
1752777.0,1721467088.88
1754182.0,1721467088.92
1757915.0,1721467089.0
1755838.0,1721467088.961
1759996.0,1721467089.04
1762238.0,1721467089.082
1764314.0,1721467089.121
1766730.0,1721467089.158
1769007.0,1721467089.191
1770966.0,1721467089.231
1769085.0,1721467089.269
1763369.0,1721467089.308
1759340.0,1721467089.347
1757648.0,1721467089.388
1758610.0,1721467089.43
1761901.0,1721467089.468
1765602.0,1721467089.509
1769173.0,1721467089.55
1774712.0,1721467089.585
1780288.0,1721467089.626
1780948.0,1721467089.666
1780176.0,1721467089.705
1779549.0,1721467089.745
1779329.0,1721467089.786
1779622.0,1721467089.826
1780009.0,1721467089.865
1780703.0,1721467089.906
1781273.0,1721467089.945
1782079.0,1721467089.986
1782109.0,1721467090.027
1777187.0,1721467090.066
1770211.0,1721467090.106
1766135.0,1721467090.147
1763437.0,1721467090.186
1762305.0,1721467090.227
1762256.0,1721467090.267
1762352.0,1721467090.311
1762552.0,1721467090.348
1762733.0,1721467090.389
1763150.0,1721467090.429
1764003.0,1721467090.468
1765142.0,1721467090.51
1766430.0,1721467090.549
1767481.0,1721467090.589
1768783.0,1721467090.631
1770775.0,1721467090.67
1772737.0,1721467090.708
1774544.0,1721467090.749
1775777.0,1721467090.788
1771428.0,1721467090.829
1766051.0,1721467090.87
1763024.0,1721467090.909
1761220.0,1721467090.95
1760696.0,1721467090.991
1761269.0,1721467091.029
1761677.0,1721467091.065
1762483.0,1721467091.106
1763159.0,1721467091.145
1763457.0,1721467091.186
1762963.0,1721467091.227
1762129.0,1721467091.267
1761746.0,1721467091.307
1761517.0,1721467091.347
1761452.0,1721467091.387
1761706.0,1721467091.427
1762177.0,1721467091.467
1762505.0,1721467091.507
1762245.0,1721467091.547
1756862.0,1721467091.587
1749159.0,1721467091.627
1743318.0,1721467091.667
1739401.0,1721467091.707
1737359.0,1721467091.747
1736212.0,1721467091.787
1736567.0,1721467091.827
1737157.0,1721467091.867
1737543.0,1721467091.907
1738083.0,1721467091.947
1738948.0,1721467091.987
1739828.0,1721467092.027
1740603.0,1721467092.067
1742046.0,1721467092.107
1743408.0,1721467092.147
1744940.0,1721467092.187
1746958.0,1721467092.227
1748557.0,1721467092.267
1750740.0,1721467092.307
1752476.0,1721467092.347
1751074.0,1721467092.387
1744755.0,1721467092.427
1739422.0,1721467092.467
1736568.0,1721467092.507
1734609.0,1721467092.547
1734361.0,1721467092.587
1734562.0,1721467092.627
1734446.0,1721467092.667
1734536.0,1721467092.707
1734706.0,1721467092.747
1734766.0,1721467092.787
1735580.0,1721467092.827
1736672.0,1721467092.867
1737988.0,1721467092.907
1739352.0,1721467092.947
1740934.0,1721467092.987
1742969.0,1721467093.027
1744029.0,1721467093.067
1739105.0,1721467093.107
1732306.0,1721467093.147
1728738.0,1721467093.187
1728460.0,1721467093.227
1728554.0,1721467093.267
1727520.0,1721467093.307
1726826.0,1721467093.347
1726910.0,1721467093.387
1726970.0,1721467093.427
1726826.0,1721467093.467
1727091.0,1721467093.507
1727388.0,1721467093.547
1727450.0,1721467093.587
1727538.0,1721467093.627
1728561.0,1721467093.667
1729393.0,1721467093.707
1727283.0,1721467093.747
1720035.0,1721467093.787
1713715.0,1721467093.827
1708920.0,1721467093.867
1705843.0,1721467093.907
1704153.0,1721467093.947
1703767.0,1721467093.987
1703320.0,1721467094.027
1703026.0,1721467094.067
1702876.0,1721467094.107
1703037.0,1721467094.147
1703764.0,1721467094.187
1704353.0,1721467094.227
1705287.0,1721467094.267
1706407.0,1721467094.307
1706418.0,1721467094.347
1701108.0,1721467094.387
1693150.0,1721467094.427
1687039.0,1721467094.467
1683002.0,1721467094.507
1681178.0,1721467094.547
1679964.0,1721467094.587
1679656.0,1721467094.627
1679466.0,1721467094.667
1678893.0,1721467094.707
1678832.0,1721467094.747
1679383.0,1721467094.787
1680094.0,1721467094.827
1681111.0,1721467094.867
1682609.0,1721467094.907
1684355.0,1721467094.947
1684411.0,1721467094.987
1678673.0,1721467095.027
1671399.0,1721467095.067
1665380.0,1721467095.107
1661109.0,1721467095.147
1659468.0,1721467095.187
1658937.0,1721467095.227
1659574.0,1721467095.267
1659649.0,1721467095.307
1659738.0,1721467095.347
1663466.0,1721467095.387
1664931.0,1721467095.427
1663449.0,1721467095.467
1660968.0,1721467095.507
1658497.0,1721467095.547
1658515.0,1721467095.587
1658699.0,1721467095.627
1659083.0,1721467095.667
1659933.0,1721467095.707
1657222.0,1721467095.747
1648380.0,1721467095.787
1639904.0,1721467095.827
1633918.0,1721467095.867
1630416.0,1721467095.907
1629971.0,1721467095.947
1630927.0,1721467096.027
1630204.0,1721467095.987
1631459.0,1721467096.067
1634127.0,1721467096.147
1632607.0,1721467096.107
1635434.0,1721467096.187
1636972.0,1721467096.227
1638483.0,1721467096.267
1640573.0,1721467096.307
1642460.0,1721467096.347
1647102.0,1721467096.427
1652074.0,1721467096.507
1649587.0,1721467096.467
1645037.0,1721467096.387
1645730.0,1721467096.587
1652379.0,1721467096.547
1632778.0,1721467096.667
1637986.0,1721467096.627
1629514.0,1721467096.707
1627773.0,1721467096.747
1627846.0,1721467096.787
1627981.0,1721467096.827
1628685.0,1721467096.867
1629343.0,1721467096.907
1629992.0,1721467096.947
1632242.0,1721467096.987
1635068.0,1721467097.027
1636635.0,1721467097.067
1638092.0,1721467097.107
1641048.0,1721467097.147
1643732.0,1721467097.187
1648201.0,1721467097.227
1656573.0,1721467097.267
1664671.0,1721467097.307
1670460.0,1721467097.347
1677736.0,1721467097.387
1681752.0,1721467097.427
1678445.0,1721467097.467
1672985.0,1721467097.507
1668130.0,1721467097.547
1665190.0,1721467097.587
1664154.0,1721467097.627
1663255.0,1721467097.667
1662554.0,1721467097.707
1661690.0,1721467097.747
1660723.0,1721467097.787
1660344.0,1721467097.827
1660375.0,1721467097.867
1660902.0,1721467097.907
1661979.0,1721467097.947
1663280.0,1721467097.987
1664893.0,1721467098.027
1668091.0,1721467098.107
1670106.0,1721467098.147
1671790.0,1721467098.187
1666431.0,1721467098.067
1669379.0,1721467098.227
1663409.0,1721467098.267
1655403.0,1721467098.347
1654654.0,1721467098.387
1658004.0,1721467098.307
1655008.0,1721467098.427
1656793.0,1721467098.507
1655862.0,1721467098.467
1657467.0,1721467098.547
1658610.0,1721467098.587
1659680.0,1721467098.627
1660675.0,1721467098.667
1662401.0,1721467098.707
1664196.0,1721467098.747
1665795.0,1721467098.787
1667880.0,1721467098.827
1672422.0,1721467098.907
1670158.0,1721467098.867
1672788.0,1721467098.947
1669695.0,1721467098.987
1664616.0,1721467099.027
1663338.0,1721467099.067
1663737.0,1721467099.107
1666340.0,1721467099.147
1668830.0,1721467099.187
1673083.0,1721467099.227
1677492.0,1721467099.267
1682372.0,1721467099.307
1687535.0,1721467099.347
1695201.0,1721467099.387
1698281.0,1721467099.427
1698622.0,1721467099.467
1699076.0,1721467099.507
1699581.0,1721467099.547
1700392.0,1721467099.587
1701882.0,1721467099.627
1702520.0,1721467099.667
1701273.0,1721467099.707
1694861.0,1721467099.747
1687253.0,1721467099.787
1681879.0,1721467099.827
1678233.0,1721467099.867
1676619.0,1721467099.907
1675818.0,1721467099.947
1675579.0,1721467099.987
1675642.0,1721467100.027
1675639.0,1721467100.067
1675792.0,1721467100.107
1676745.0,1721467100.147
1677911.0,1721467100.187
1679329.0,1721467100.227
1680800.0,1721467100.267
1682741.0,1721467100.307
1684161.0,1721467100.347
1686106.0,1721467100.387
1685591.0,1721467100.427
1679924.0,1721467100.467
1674178.0,1721467100.507
1670713.0,1721467100.547
1669014.0,1721467100.587
1669319.0,1721467100.627
1670339.0,1721467100.667
1671499.0,1721467100.707
1672527.0,1721467100.747
1672527.0,1721467100.787
1673444.0,1721467100.827
1674872.0,1721467100.867
1676443.0,1721467100.907
1677764.0,1721467100.947
1679321.0,1721467100.987
1681071.0,1721467101.027
1682870.0,1721467101.067
1684658.0,1721467101.107
1684988.0,1721467101.147
1680766.0,1721467101.187
1674320.0,1721467101.227
1668563.0,1721467101.267
1664522.0,1721467101.308
1662052.0,1721467101.349
1661425.0,1721467101.39
1661206.0,1721467101.431
1661629.0,1721467101.472
1661716.0,1721467101.513
1662149.0,1721467101.554
1662915.0,1721467101.595
1664017.0,1721467101.636
1665437.0,1721467101.677
1667195.0,1721467101.718
1669016.0,1721467101.759
1671328.0,1721467101.8
1672462.0,1721467101.841
1670034.0,1721467101.882
1664047.0,1721467101.923
1658885.0,1721467101.964
1655919.0,1721467102.005
1654706.0,1721467102.046
1655492.0,1721467102.087
1658372.0,1721467102.128
1662251.0,1721467102.169
1664921.0,1721467102.21
1667107.0,1721467102.251
1669836.0,1721467102.292
1672871.0,1721467102.333
1675983.0,1721467102.374
1679023.0,1721467102.415
1682196.0,1721467102.456
1685799.0,1721467102.497
1689154.0,1721467102.538
1691719.0,1721467102.579
1689271.0,1721467102.62
1683506.0,1721467102.661
1680369.0,1721467102.702
1679207.0,1721467102.743
1679849.0,1721467102.784
1681899.0,1721467102.825
1683758.0,1721467102.866
1685439.0,1721467102.907
1687131.0,1721467102.948
1689161.0,1721467102.989
1691845.0,1721467103.03
1694981.0,1721467103.071
1697427.0,1721467103.112
1701556.0,1721467103.153
1705815.0,1721467103.194
1710337.0,1721467103.235
1717879.0,1721467103.276
1721849.0,1721467103.305
1722356.0,1721467103.345
1717390.0,1721467103.386
1712398.0,1721467103.425
1709399.0,1721467103.466
1707685.0,1721467103.506
1706878.0,1721467103.545
1706400.0,1721467103.586
1706331.0,1721467103.627
1705998.0,1721467103.666
1706036.0,1721467103.706
1706400.0,1721467103.747
1707131.0,1721467103.786
1708507.0,1721467103.826
1709855.0,1721467103.868
1711457.0,1721467103.906
1713555.0,1721467103.947
1715525.0,1721467103.988
1717657.0,1721467104.027
1719667.0,1721467104.068
1718289.0,1721467104.109
1713538.0,1721467104.148
1709482.0,1721467104.188
1707152.0,1721467104.229
1706275.0,1721467104.269
1706518.0,1721467104.309
1707088.0,1721467104.35
1708307.0,1721467104.389
1709570.0,1721467104.429
1710744.0,1721467104.471
1712123.0,1721467104.51
1713565.0,1721467104.55
1715638.0,1721467104.591
1717435.0,1721467104.627
1719676.0,1721467104.668
1721966.0,1721467104.709
1724020.0,1721467104.748
1726521.0,1721467104.788
1728033.0,1721467104.829
1726379.0,1721467104.869
1724788.0,1721467104.908
1725130.0,1721467104.949
1726661.0,1721467104.988
1729951.0,1721467105.028
1734784.0,1721467105.07
1739389.0,1721467105.108
1751911.0,1721467105.19
1745652.0,1721467105.149
1754983.0,1721467105.269
1755786.0,1721467105.31
1754141.0,1721467105.229
1756523.0,1721467105.349
1757497.0,1721467105.389
1758419.0,1721467105.431
1759406.0,1721467105.471
1761041.0,1721467105.551
1761214.0,1721467105.51
1757675.0,1721467105.589
1755358.0,1721467105.629
1753800.0,1721467105.671
1753469.0,1721467105.709
1754098.0,1721467105.75
1754968.0,1721467105.791
1756058.0,1721467105.825
1757466.0,1721467105.866
1762704.0,1721467106.027
1758859.0,1721467105.906
1764592.0,1721467106.066
1766289.0,1721467106.106
1760017.0,1721467105.945
1761599.0,1721467105.985
1768049.0,1721467106.147
1769121.0,1721467106.186
1766667.0,1721467106.226
1762317.0,1721467106.306
1763907.0,1721467106.268
1762793.0,1721467106.388
1761787.0,1721467106.347
1763884.0,1721467106.427
1765235.0,1721467106.468
1766318.0,1721467106.508
1767661.0,1721467106.548
1768801.0,1721467106.589
1770568.0,1721467106.63
1772406.0,1721467106.67
1773961.0,1721467106.709
1775394.0,1721467106.75
1777008.0,1721467106.79
1778838.0,1721467106.83
1777726.0,1721467106.872
1774677.0,1721467106.91
1771946.0,1721467106.942
1770467.0,1721467106.983
1769566.0,1721467107.022
1771336.0,1721467107.063
1771755.0,1721467107.104
1768710.0,1721467107.143
1764962.0,1721467107.183
1762590.0,1721467107.224
1761334.0,1721467107.264
1761569.0,1721467107.303
1762945.0,1721467107.344
1764304.0,1721467107.383
1766192.0,1721467107.424
1768971.0,1721467107.465
1770636.0,1721467107.504
1772830.0,1721467107.544
1774638.0,1721467107.585
1771833.0,1721467107.624
1765457.0,1721467107.666
1760539.0,1721467107.707
1757794.0,1721467107.744
1756504.0,1721467107.779
1756919.0,1721467107.812
1757555.0,1721467107.851
1758401.0,1721467107.891
1758795.0,1721467107.933
1759122.0,1721467107.972
1759984.0,1721467108.012
1760902.0,1721467108.054
1763568.0,1721467108.123
1761980.0,1721467108.083
1765404.0,1721467108.164
1767382.0,1721467108.203
1769224.0,1721467108.244
1771211.0,1721467108.284
1773234.0,1721467108.323
1773762.0,1721467108.363
1768610.0,1721467108.404
1762582.0,1721467108.444
1759001.0,1721467108.484
1757440.0,1721467108.525
1757410.0,1721467108.564
1757911.0,1721467108.604
1759027.0,1721467108.646
1760545.0,1721467108.684
1762031.0,1721467108.724
1763344.0,1721467108.765
1767727.0,1721467108.801
1769775.0,1721467108.843
1768633.0,1721467108.877
1765900.0,1721467108.916
1763204.0,1721467108.953
1762622.0,1721467109.031
1762135.0,1721467108.991
1763244.0,1721467109.07
1762727.0,1721467109.112
1758640.0,1721467109.151
1752302.0,1721467109.189
1748484.0,1721467109.263
1752302.0,1721467109.225
1747992.0,1721467109.344
1747438.0,1721467109.303
1748989.0,1721467109.383
1750284.0,1721467109.424
1752430.0,1721467109.504
1751268.0,1721467109.465
1753460.0,1721467109.544
1754891.0,1721467109.585
1756201.0,1721467109.625
1760339.0,1721467109.705
1758015.0,1721467109.664
1762726.0,1721467109.744
1765124.0,1721467109.784
1767967.0,1721467109.826
1770697.0,1721467109.865
1772145.0,1721467109.905
1767841.0,1721467109.942
1762027.0,1721467109.981
1758621.0,1721467110.014
1757003.0,1721467110.052
1756663.0,1721467110.091
1757361.0,1721467110.132
1758304.0,1721467110.173
1759211.0,1721467110.21
1759781.0,1721467110.251
1760179.0,1721467110.292
1761104.0,1721467110.331
1762202.0,1721467110.372
1763168.0,1721467110.414
1764555.0,1721467110.445
1765879.0,1721467110.485
1767530.0,1721467110.526
1769825.0,1721467110.565
1770958.0,1721467110.606
1766324.0,1721467110.647
1764946.0,1721467110.686
1762903.0,1721467110.726
1760246.0,1721467110.767
1758216.0,1721467110.807
1757997.0,1721467110.846
1757499.0,1721467110.887
1756484.0,1721467110.927
1756809.0,1721467110.967
1758336.0,1721467111.008
1760085.0,1721467111.047
1761518.0,1721467111.087
1763773.0,1721467111.125
1765873.0,1721467111.16
1768107.0,1721467111.193
1769535.0,1721467111.233
1766240.0,1721467111.272
1759833.0,1721467111.313
1754767.0,1721467111.352
1752166.0,1721467111.392
1751498.0,1721467111.431
1751782.0,1721467111.473
1752523.0,1721467111.512
1752745.0,1721467111.552
1753043.0,1721467111.594
1753624.0,1721467111.633
1754179.0,1721467111.673
1754697.0,1721467111.712
1756017.0,1721467111.751
1756017.0,1721467111.786
1757294.0,1721467111.826
1758972.0,1721467111.866
1758802.0,1721467111.906
1752992.0,1721467111.947
1746609.0,1721467111.987
1742316.0,1721467112.026
1739293.0,1721467112.106
1739942.0,1721467112.067
1739638.0,1721467112.146
1740308.0,1721467112.188
1740808.0,1721467112.226
1741176.0,1721467112.267
1741858.0,1721467112.308
1743542.0,1721467112.347
1745502.0,1721467112.388
1748934.0,1721467112.428
1753141.0,1721467112.467
1754912.0,1721467112.508
1755162.0,1721467112.55
1755729.0,1721467112.59
1752301.0,1721467112.63
1743546.0,1721467112.671
1736292.0,1721467112.71
1731449.0,1721467112.75
1728966.0,1721467112.792
1727969.0,1721467112.831
1727732.0,1721467112.872
1727371.0,1721467112.912
1726732.0,1721467112.945
1725856.0,1721467112.986
1725929.0,1721467113.026
1726039.0,1721467113.066
1726530.0,1721467113.106
