bvp,time
130.04,1611470310.25
132.07,1611470310.265625
143.27,1611470310.28125
160.74,1611470310.296875
179.06,1611470310.3125
192.44,1611470310.328125
197.02,1611470310.34375
192.09,1611470310.359375
179.9,1611470310.375
164.23,1611470310.390625
148.84,1611470310.40625
136.39,1611470310.421875
128.21,1611470310.4375
124.42,1611470310.453125
123.9,1611470310.46875
124.17,1611470310.484375
121.48,1611470310.5
111.76,1611470310.515625
92.22,1611470310.53125
63.19,1611470310.546875
28.81,1611470310.5625
-3.96,1611470310.578125
-27.64,1611470310.59375
-37.07,1611470310.609375
-31.42,1611470310.625
-14.53,1611470310.640625
6.4,1611470310.65625
23.43,1611470310.671875
30.32,1611470310.6875
24.4,1611470310.703125
7.11,1611470310.71875
-16.66,1611470310.734375
-40.06,1611470310.75
-56.19,1611470310.765625
-59.9,1611470310.78125
-49.1,1611470310.796875
-25.3,1611470310.8125
6.66,1611470310.828125
39.89,1611470310.84375
67.49,1611470310.859375
84.84,1611470310.875
91.28,1611470310.890625
90.44,1611470310.90625
88.73,1611470310.921875
92.6,1611470310.9375
105.75,1611470310.953125
127.64,1611470310.96875
153.97,1611470310.984375
178.77,1611470311.0
196.94,1611470311.015625
205.89,1611470311.03125
205.74,1611470311.046875
198.23,1611470311.0625
185.47,1611470311.078125
168.99,1611470311.09375
149.83,1611470311.109375
129.19,1611470311.125
108.82,1611470311.140625
90.77,1611470311.15625
76.62,1611470311.171875
66.61,1611470311.1875
59.39,1611470311.203125
52.62,1611470311.21875
44.14,1611470311.234375
33.07,1611470311.25
20.35,1611470311.265625
8.32,1611470311.28125
-0.39,1611470311.296875
-4.13,1611470311.3125
-3.07,1611470311.328125
0.82,1611470311.34375
4.56,1611470311.359375
5.35,1611470311.375
1.68,1611470311.390625
-6.39,1611470311.40625
-17.58,1611470311.421875
-30.35,1611470311.4375
-43.92,1611470311.453125
-58.79,1611470311.46875
-76.84,1611470311.484375
-100.91,1611470311.5
-134.34,1611470311.515625
-180.19,1611470311.53125
-240.19,1611470311.546875
-313.4,1611470311.5625
-395.07,1611470311.578125
-476.67,1611470311.59375
-547.64,1611470311.609375
-598.3,1611470311.625
-623.03,1611470311.640625
-622.0,1611470311.65625
-600.58,1611470311.671875
-566.68,1611470311.6875
-527.54,1611470311.703125
-487.44,1611470311.71875
-447.35,1611470311.734375
-406.23,1611470311.75
-362.64,1611470311.765625
-315.9,1611470311.78125
-266.18,1611470311.796875
-214.2,1611470311.8125
-160.91,1611470311.828125
-107.79,1611470311.84375
-57.19,1611470311.859375
-12.38,1611470311.875
23.16,1611470311.890625
46.87,1611470311.90625
58.15,1611470311.921875
58.86,1611470311.9375
52.84,1611470311.953125
44.76,1611470311.96875
38.66,1611470311.984375
36.82,1611470312.0
39.37,1611470312.015625
44.57,1611470312.03125
49.82,1611470312.046875
52.85,1611470312.0625
52.64,1611470312.078125
49.8,1611470312.09375
46.11,1611470312.109375
43.8,1611470312.125
44.65,1611470312.140625
49.55,1611470312.15625
58.3,1611470312.171875
69.86,1611470312.1875
82.61,1611470312.203125
94.73,1611470312.21875
104.52,1611470312.234375
110.59,1611470312.25
112.32,1611470312.265625
110.0,1611470312.28125
104.81,1611470312.296875
98.38,1611470312.3125
92.22,1611470312.328125
87.34,1611470312.34375
84.15,1611470312.359375
82.65,1611470312.375
82.71,1611470312.390625
84.11,1611470312.40625
86.44,1611470312.421875
88.87,1611470312.4375
90.23,1611470312.453125
89.4,1611470312.46875
85.74,1611470312.484375
79.31,1611470312.5
70.72,1611470312.515625
60.62,1611470312.53125
49.35,1611470312.546875
36.92,1611470312.5625
23.41,1611470312.578125
9.51,1611470312.59375
-3.35,1611470312.609375
-13.35,1611470312.625
-19.07,1611470312.640625
-20.14,1611470312.65625
-17.53,1611470312.671875
-13.15,1611470312.6875
-9.12,1611470312.703125
-6.91,1611470312.71875
-7.01,1611470312.734375
-8.84,1611470312.75
-11.29,1611470312.765625
-13.35,1611470312.78125
-14.58,1611470312.796875
-15.29,1611470312.8125
-16.28,1611470312.828125
-18.36,1611470312.84375
-21.81,1611470312.859375
-26.24,1611470312.875
-30.67,1611470312.890625
-33.95,1611470312.90625
-35.08,1611470312.921875
-33.28,1611470312.9375
-27.87,1611470312.953125
-18.37,1611470312.96875
-4.97,1611470312.984375
10.8,1611470313.0
25.76,1611470313.015625
35.87,1611470313.03125
37.93,1611470313.046875
31.41,1611470313.0625
19.24,1611470313.078125
6.87,1611470313.09375
0.01,1611470313.109375
2.05,1611470313.125
12.89,1611470313.140625
29.35,1611470313.15625
46.97,1611470313.171875
62.06,1611470313.1875
72.79,1611470313.203125
79.08,1611470313.21875
81.76,1611470313.234375
81.52,1611470313.25
78.53,1611470313.265625
72.53,1611470313.28125
63.35,1611470313.296875
51.34,1611470313.3125
37.59,1611470313.328125
23.94,1611470313.34375
12.5,1611470313.359375
5.0,1611470313.375
1.99,1611470313.390625
2.52,1611470313.40625
4.35,1611470313.421875
4.9,1611470313.4375
2.33,1611470313.453125
-3.74,1611470313.46875
-12.3,1611470313.484375
-21.56,1611470313.5
-29.91,1611470313.515625
-36.54,1611470313.53125
-41.43,1611470313.546875
-45.04,1611470313.5625
-47.86,1611470313.578125
-50.16,1611470313.59375
-51.92,1611470313.609375
-53.01,1611470313.625
-53.17,1611470313.640625
-52.11,1611470313.65625
-49.61,1611470313.671875
-45.66,1611470313.6875
-40.55,1611470313.703125
-34.95,1611470313.71875
-29.67,1611470313.734375
-25.3,1611470313.75
-22.08,1611470313.765625
-19.82,1611470313.78125
-18.28,1611470313.796875
-17.38,1611470313.8125
-17.29,1611470313.828125
-18.23,1611470313.84375
-20.06,1611470313.859375
-22.15,1611470313.875
-23.5,1611470313.890625
-23.4,1611470313.90625
-21.8,1611470313.921875
-19.57,1611470313.9375
-18.08,1611470313.953125
-18.47,1611470313.96875
-20.99,1611470313.984375
-24.83,1611470314.0
-28.47,1611470314.015625
-30.54,1611470314.03125
-30.51,1611470314.046875
-28.98,1611470314.0625
-27.26,1611470314.078125
-26.64,1611470314.09375
-27.65,1611470314.109375
-29.8,1611470314.125
-31.89,1611470314.140625
-32.64,1611470314.15625
-31.38,1611470314.171875
-28.3,1611470314.1875
-24.18,1611470314.203125
-19.88,1611470314.21875
-15.88,1611470314.234375
-12.13,1611470314.25
-8.3,1611470314.265625
-4.27,1611470314.28125
-0.3,1611470314.296875
3.14,1611470314.3125
5.74,1611470314.328125
7.74,1611470314.34375
9.9,1611470314.359375
12.99,1611470314.375
17.26,1611470314.390625
22.16,1611470314.40625
26.59,1611470314.421875
29.55,1611470314.4375
30.88,1611470314.453125
31.36,1611470314.46875
32.49,1611470314.484375
35.57,1611470314.5
41.03,1611470314.515625
48.0,1611470314.53125
54.64,1611470314.546875
58.73,1611470314.5625
58.6,1611470314.578125
53.61,1611470314.59375
44.33,1611470314.609375
32.28,1611470314.625
19.33,1611470314.640625
7.15,1611470314.65625
-3.14,1611470314.671875
-11.0,1611470314.6875
-16.23,1611470314.703125
-18.72,1611470314.71875
-18.33,1611470314.734375
-15.09,1611470314.75
-9.53,1611470314.765625
-2.78,1611470314.78125
3.58,1611470314.796875
8.07,1611470314.8125
9.89,1611470314.828125
9.25,1611470314.84375
7.19,1611470314.859375
5.08,1611470314.875
3.92,1611470314.890625
3.97,1611470314.90625
4.72,1611470314.921875
5.29,1611470314.9375
4.95,1611470314.953125
3.39,1611470314.96875
0.79,1611470314.984375
-2.32,1611470315.0
-5.49,1611470315.015625
-8.43,1611470315.03125
-11.11,1611470315.046875
-13.65,1611470315.0625
-16.12,1611470315.078125
-18.44,1611470315.09375
-20.33,1611470315.109375
-21.35,1611470315.125
-21.17,1611470315.140625
-19.76,1611470315.15625
-17.58,1611470315.171875
-15.51,1611470315.1875
-14.59,1611470315.203125
-15.56,1611470315.21875
-18.47,1611470315.234375
-22.56,1611470315.25
-26.41,1611470315.265625
-28.48,1611470315.28125
-27.66,1611470315.296875
-23.73,1611470315.3125
-17.35,1611470315.328125
-9.79,1611470315.34375
-2.48,1611470315.359375
3.47,1611470315.375
7.56,1611470315.390625
9.89,1611470315.40625
11.0,1611470315.421875
11.59,1611470315.4375
12.2,1611470315.453125
13.17,1611470315.46875
14.49,1611470315.484375
15.94,1611470315.5
17.11,1611470315.515625
17.6,1611470315.53125
17.16,1611470315.546875
15.78,1611470315.5625
13.71,1611470315.578125
11.38,1611470315.59375
9.17,1611470315.609375
7.29,1611470315.625
5.74,1611470315.640625
4.37,1611470315.65625
3.01,1611470315.671875
1.6,1611470315.6875
0.19,1611470315.703125
-1.13,1611470315.71875
-2.34,1611470315.734375
-3.54,1611470315.75
-4.9,1611470315.765625
-6.49,1611470315.78125
-8.21,1611470315.796875
-9.79,1611470315.8125
-10.87,1611470315.828125
-11.11,1611470315.84375
-10.3,1611470315.859375
-8.38,1611470315.875
-5.46,1611470315.890625
-1.76,1611470315.90625
2.38,1611470315.921875
6.54,1611470315.9375
10.26,1611470315.953125
13.14,1611470315.96875
14.97,1611470315.984375
15.72,1611470316.0
15.54,1611470316.015625
14.67,1611470316.03125
13.41,1611470316.046875
12.06,1611470316.0625
10.82,1611470316.078125
9.79,1611470316.09375
8.95,1611470316.109375
8.17,1611470316.125
7.21,1611470316.140625
5.91,1611470316.15625
4.17,1611470316.171875
2.06,1611470316.1875
-0.25,1611470316.203125
-2.52,1611470316.21875
-4.56,1611470316.234375
-6.27,1611470316.25
-7.75,1611470316.265625
-9.26,1611470316.28125
-11.19,1611470316.296875
-13.85,1611470316.3125
-17.27,1611470316.328125
-21.04,1611470316.34375
-24.32,1611470316.359375
-26.06,1611470316.375
-25.46,1611470316.390625
-22.3,1611470316.40625
-17.15,1611470316.421875
-11.17,1611470316.4375
-5.66,1611470316.453125
-1.49,1611470316.46875
1.1,1611470316.484375
2.5,1611470316.5
3.37,1611470316.515625
4.21,1611470316.53125
5.16,1611470316.546875
6.01,1611470316.5625
6.42,1611470316.578125
6.17,1611470316.59375
5.24,1611470316.609375
3.84,1611470316.625
2.3,1611470316.640625
0.98,1611470316.65625
0.21,1611470316.671875
0.24,1611470316.6875
1.18,1611470316.703125
2.87,1611470316.71875
5.0,1611470316.734375
7.13,1611470316.75
8.84,1611470316.765625
9.93,1611470316.78125
10.31,1611470316.796875
9.97,1611470316.8125
8.81,1611470316.828125
6.65,1611470316.84375
3.36,1611470316.859375
-0.89,1611470316.875
-5.69,1611470316.890625
-10.31,1611470316.90625
-14.02,1611470316.921875
-16.29,1611470316.9375
-16.86,1611470316.953125
-15.7,1611470316.96875
-12.98,1611470316.984375
-8.94,1611470317.0
-3.92,1611470317.015625
1.55,1611470317.03125
6.81,1611470317.046875
11.18,1611470317.0625
14.2,1611470317.078125
15.86,1611470317.09375
16.55,1611470317.109375
16.85,1611470317.125
17.25,1611470317.140625
17.87,1611470317.15625
18.43,1611470317.171875
18.44,1611470317.1875
17.54,1611470317.203125
15.63,1611470317.21875
12.99,1611470317.234375
10.05,1611470317.25
7.21,1611470317.265625
4.71,1611470317.28125
2.59,1611470317.296875
0.74,1611470317.3125
-0.98,1611470317.328125
-2.74,1611470317.34375
-4.67,1611470317.359375
-6.91,1611470317.375
-9.67,1611470317.390625
-13.1,1611470317.40625
-17.23,1611470317.421875
-21.8,1611470317.4375
-26.19,1611470317.453125
-29.52,1611470317.46875
-30.93,1611470317.484375
-29.92,1611470317.5
-26.64,1611470317.515625
-21.86,1611470317.53125
-16.68,1611470317.546875
-12.07,1611470317.5625
-8.5,1611470317.578125
-5.8,1611470317.59375
-3.33,1611470317.609375
-0.46,1611470317.625
3.0,1611470317.640625
6.77,1611470317.65625
10.15,1611470317.671875
12.43,1611470317.6875
13.3,1611470317.703125
12.92,1611470317.71875
11.94,1611470317.734375
11.09,1611470317.75
10.89,1611470317.765625
11.38,1611470317.78125
12.17,1611470317.796875
12.64,1611470317.8125
12.23,1611470317.828125
10.78,1611470317.84375
8.53,1611470317.859375
6.07,1611470317.875
4.02,1611470317.890625
2.83,1611470317.90625
2.49,1611470317.921875
2.55,1611470317.9375
2.25,1611470317.953125
0.77,1611470317.96875
-2.42,1611470317.984375
-7.29,1611470318.0
-13.12,1611470318.015625
-18.74,1611470318.03125
-22.93,1611470318.046875
-24.84,1611470318.0625
-24.34,1611470318.078125
-21.92,1611470318.09375
-18.5,1611470318.109375
-14.94,1611470318.125
-11.78,1611470318.140625
-9.1,1611470318.15625
-6.6,1611470318.171875
-3.89,1611470318.1875
-0.65,1611470318.203125
3.15,1611470318.21875
7.27,1611470318.234375
11.27,1611470318.25
14.64,1611470318.265625
16.97,1611470318.28125
18.08,1611470318.296875
18.1,1611470318.3125
17.43,1611470318.328125
16.55,1611470318.34375
15.92,1611470318.359375
15.74,1611470318.375
15.98,1611470318.390625
16.42,1611470318.40625
16.8,1611470318.421875
16.89,1611470318.4375
16.63,1611470318.453125
16.03,1611470318.46875
15.19,1611470318.484375
14.15,1611470318.5
12.89,1611470318.515625
11.29,1611470318.53125
9.18,1611470318.546875
6.4,1611470318.5625
2.93,1611470318.578125
-1.05,1611470318.59375
-5.19,1611470318.609375
-9.04,1611470318.625
-12.17,1611470318.640625
-14.36,1611470318.65625
-15.53,1611470318.671875
-15.73,1611470318.6875
-15.02,1611470318.703125
-13.41,1611470318.71875
-10.86,1611470318.734375
-7.43,1611470318.75
-3.29,1611470318.765625
1.21,1611470318.78125
5.6,1611470318.796875
9.44,1611470318.8125
12.48,1611470318.828125
14.67,1611470318.84375
16.14,1611470318.859375
17.15,1611470318.875
17.92,1611470318.890625
18.59,1611470318.90625
19.14,1611470318.921875
19.41,1611470318.9375
19.2,1611470318.953125
18.31,1611470318.96875
16.69,1611470318.984375
14.5,1611470319.0
12.1,1611470319.015625
10.01,1611470319.03125
8.61,1611470319.046875
8.04,1611470319.0625
8.03,1611470319.078125
8.01,1611470319.09375
7.38,1611470319.109375
5.69,1611470319.125
2.9,1611470319.140625
-0.69,1611470319.15625
-4.6,1611470319.171875
-8.43,1611470319.1875
-12.02,1611470319.203125
-15.38,1611470319.21875
-18.53,1611470319.234375
-21.37,1611470319.25
-23.57,1611470319.265625
-24.72,1611470319.28125
-24.5,1611470319.296875
-22.82,1611470319.3125
-19.88,1611470319.328125
-16.06,1611470319.34375
-11.76,1611470319.359375
-7.3,1611470319.375
-2.83,1611470319.390625
1.54,1611470319.40625
5.76,1611470319.421875
9.7,1611470319.4375
13.22,1611470319.453125
16.12,1611470319.46875
18.24,1611470319.484375
19.47,1611470319.5
19.82,1611470319.515625
19.39,1611470319.53125
18.38,1611470319.546875
17.09,1611470319.5625
15.82,1611470319.578125
14.84,1611470319.59375
14.31,1611470319.609375
14.18,1611470319.625
14.26,1611470319.640625
14.25,1611470319.65625
13.94,1611470319.671875
13.22,1611470319.6875
12.17,1611470319.703125
10.96,1611470319.71875
9.71,1611470319.734375
8.4,1611470319.75
6.82,1611470319.765625
4.69,1611470319.78125
1.87,1611470319.796875
-1.57,1611470319.8125
-5.39,1611470319.828125
-9.28,1611470319.84375
-13.04,1611470319.859375
-16.66,1611470319.875
-20.15,1611470319.890625
-23.41,1611470319.90625
-26.0,1611470319.921875
-27.36,1611470319.9375
-26.9,1611470319.953125
-24.42,1611470319.96875
-20.16,1611470319.984375
-14.79,1611470320.0
-9.11,1611470320.015625
-3.72,1611470320.03125
1.02,1611470320.046875
5.07,1611470320.0625
8.42,1611470320.078125
11.02,1611470320.09375
12.7,1611470320.109375
13.37,1611470320.125
13.02,1611470320.140625
11.92,1611470320.15625
10.48,1611470320.171875
9.14,1611470320.1875
8.27,1611470320.203125
8.05,1611470320.21875
8.44,1611470320.234375
9.25,1611470320.25
10.17,1611470320.265625
10.86,1611470320.28125
11.05,1611470320.296875
10.6,1611470320.3125
9.48,1611470320.328125
7.82,1611470320.34375
5.8,1611470320.359375
3.56,1611470320.375
1.18,1611470320.390625
-1.38,1611470320.40625
-4.13,1611470320.421875
-7.16,1611470320.4375
-10.48,1611470320.453125
-14.14,1611470320.46875
-18.11,1611470320.484375
-22.28,1611470320.5
-26.35,1611470320.515625
-29.83,1611470320.53125
-32.09,1611470320.546875
-32.58,1611470320.5625
-31.03,1611470320.578125
-27.67,1611470320.59375
-23.18,1611470320.609375
-18.52,1611470320.625
-14.52,1611470320.640625
-11.57,1611470320.65625
-9.53,1611470320.671875
-7.89,1611470320.6875
-6.13,1611470320.703125
-4.13,1611470320.71875
-2.26,1611470320.734375
-1.2,1611470320.75
-1.53,1611470320.765625
-3.39,1611470320.78125
-6.33,1611470320.796875
-9.57,1611470320.8125
-12.38,1611470320.828125
-14.45,1611470320.84375
-16.07,1611470320.859375
-17.86,1611470320.875
-20.54,1611470320.890625
-24.49,1611470320.90625
-29.7,1611470320.921875
-35.86,1611470320.9375
-42.51,1611470320.953125
-49.07,1611470320.96875
-54.75,1611470320.984375
-58.31,1611470321.0
-58.37,1611470321.015625
-53.97,1611470321.03125
-45.46,1611470321.046875
-34.9,1611470321.0625
-25.63,1611470321.078125
-21.02,1611470321.09375
-22.84,1611470321.109375
-30.35,1611470321.125
-40.61,1611470321.140625
-49.69,1611470321.15625
-54.37,1611470321.171875
-53.13,1611470321.1875
-46.09,1611470321.203125
-34.37,1611470321.21875
-19.14,1611470321.234375
-1.28,1611470321.25
18.49,1611470321.265625
39.19,1611470321.28125
59.46,1611470321.296875
77.78,1611470321.3125
93.03,1611470321.328125
104.79,1611470321.34375
113.38,1611470321.359375
119.49,1611470321.375
123.75,1611470321.390625
126.4,1611470321.40625
127.23,1611470321.421875
125.73,1611470321.4375
121.46,1611470321.453125
114.29,1611470321.46875
104.62,1611470321.484375
93.34,1611470321.5
81.58,1611470321.515625
70.32,1611470321.53125
60.13,1611470321.546875
51.03,1611470321.5625
42.76,1611470321.578125
35.05,1611470321.59375
27.89,1611470321.609375
21.64,1611470321.625
16.71,1611470321.640625
13.32,1611470321.65625
11.24,1611470321.671875
9.72,1611470321.6875
7.74,1611470321.703125
4.4,1611470321.71875
-0.65,1611470321.734375
-7.08,1611470321.75
-13.89,1611470321.765625
-19.88,1611470321.78125
-24.01,1611470321.796875
-25.79,1611470321.8125
-25.25,1611470321.828125
-22.79,1611470321.84375
-18.89,1611470321.859375
-14.04,1611470321.875
-8.72,1611470321.890625
-3.55,1611470321.90625
0.72,1611470321.921875
3.45,1611470321.9375
4.43,1611470321.953125
4.17,1611470321.96875
3.84,1611470321.984375
4.83,1611470322.0
8.08,1611470322.015625
13.64,1611470322.03125
20.51,1611470322.046875
26.96,1611470322.0625
31.24,1611470322.078125
32.11,1611470322.09375
29.25,1611470322.109375
23.28,1611470322.125
15.48,1611470322.140625
7.28,1611470322.15625
-0.12,1611470322.171875
-6.06,1611470322.1875
-10.46,1611470322.203125
-13.67,1611470322.21875
-16.19,1611470322.234375
-18.37,1611470322.25
-20.25,1611470322.265625
-21.57,1611470322.28125
-21.99,1611470322.296875
-21.39,1611470322.3125
-20.0,1611470322.328125
-18.49,1611470322.34375
-17.64,1611470322.359375
-18.09,1611470322.375
-20.08,1611470322.390625
-23.34,1611470322.40625
-27.21,1611470322.421875
-30.82,1611470322.4375
-33.35,1611470322.453125
-34.23,1611470322.46875
-33.23,1611470322.484375
-30.51,1611470322.5
-26.58,1611470322.515625
-22.14,1611470322.53125
-17.87,1611470322.546875
-14.18,1611470322.5625
-11.19,1611470322.578125
-8.64,1611470322.59375
-6.12,1611470322.609375
-3.32,1611470322.625
-0.12,1611470322.640625
3.26,1611470322.65625
6.44,1611470322.671875
8.92,1611470322.6875
10.35,1611470322.703125
10.53,1611470322.71875
9.52,1611470322.734375
7.62,1611470322.75
5.32,1611470322.765625
3.22,1611470322.78125
1.87,1611470322.796875
1.61,1611470322.8125
2.36,1611470322.828125
3.68,1611470322.84375
4.85,1611470322.859375
5.23,1611470322.875
4.45,1611470322.890625
2.57,1611470322.90625
-0.07,1611470322.921875
-3.08,1611470322.9375
-6.17,1611470322.953125
-9.31,1611470322.96875
-12.55,1611470322.984375
-15.96,1611470323.0
-19.52,1611470323.015625
-23.15,1611470323.03125
-26.74,1611470323.046875
-30.19,1611470323.0625
-33.32,1611470323.078125
-35.8,1611470323.09375
-37.15,1611470323.109375
-36.9,1611470323.125
-34.76,1611470323.140625
-30.87,1611470323.15625
-25.75,1611470323.171875
-20.14,1611470323.1875
-14.68,1611470323.203125
-9.69,1611470323.21875
-5.13,1611470323.234375
-0.79,1611470323.25
3.48,1611470323.265625
7.6,1611470323.28125
11.23,1611470323.296875
13.97,1611470323.3125
15.56,1611470323.328125
16.04,1611470323.34375
15.8,1611470323.359375
15.35,1611470323.375
15.22,1611470323.390625
15.65,1611470323.40625
16.59,1611470323.421875
17.7,1611470323.4375
18.49,1611470323.453125
18.58,1611470323.46875
17.76,1611470323.484375
16.13,1611470323.5
13.98,1611470323.515625
11.69,1611470323.53125
9.54,1611470323.546875
7.66,1611470323.5625
5.98,1611470323.578125
4.29,1611470323.59375
2.32,1611470323.609375
-0.15,1611470323.625
-3.26,1611470323.640625
-6.93,1611470323.65625
-10.83,1611470323.671875
-14.45,1611470323.6875
-17.1,1611470323.703125
-18.17,1611470323.71875
-17.28,1611470323.734375
-14.43,1611470323.75
-9.98,1611470323.765625
-4.57,1611470323.78125
1.01,1611470323.796875
6.11,1611470323.8125
10.29,1611470323.828125
13.41,1611470323.84375
15.61,1611470323.859375
17.18,1611470323.875
18.41,1611470323.890625
19.43,1611470323.90625
20.16,1611470323.921875
20.34,1611470323.9375
19.71,1611470323.953125
18.13,1611470323.96875
15.75,1611470323.984375
12.88,1611470324.0
9.95,1611470324.015625
7.29,1611470324.03125
5.05,1611470324.046875
3.22,1611470324.0625
1.72,1611470324.078125
0.42,1611470324.09375
-0.75,1611470324.109375
-1.9,1611470324.125
-3.22,1611470324.140625
-5.0,1611470324.15625
-7.56,1611470324.171875
-11.14,1611470324.1875
-15.74,1611470324.203125
-21.08,1611470324.21875
-26.62,1611470324.234375
-31.68,1611470324.25
-35.64,1611470324.265625
-38.12,1611470324.28125
-39.01,1611470324.296875
-38.46,1611470324.3125
-36.75,1611470324.328125
-34.13,1611470324.34375
-30.76,1611470324.359375
-26.72,1611470324.375
-22.04,1611470324.390625
-16.76,1611470324.40625
-10.99,1611470324.421875
-4.9,1611470324.4375
1.25,1611470324.453125
7.05,1611470324.46875
12.02,1611470324.484375
15.71,1611470324.5
17.86,1611470324.515625
18.58,1611470324.53125
18.35,1611470324.546875
17.86,1611470324.5625
17.67,1611470324.578125
17.98,1611470324.59375
18.53,1611470324.609375
18.78,1611470324.625
18.24,1611470324.640625
16.69,1611470324.65625
14.27,1611470324.671875
11.36,1611470324.6875
8.3,1611470324.703125
5.33,1611470324.71875
2.51,1611470324.734375
-0.23,1611470324.75
-2.99,1611470324.765625
-5.92,1611470324.78125
-9.24,1611470324.796875
-13.16,1611470324.8125
-17.8,1611470324.828125
-23.04,1611470324.84375
-28.48,1611470324.859375
-33.46,1611470324.875
-37.27,1611470324.890625
-39.33,1611470324.90625
-39.31,1611470324.921875
-37.25,1611470324.9375
-33.44,1611470324.953125
-28.35,1611470324.96875
-22.53,1611470324.984375
-16.45,1611470325.0
-10.42,1611470325.015625
-4.54,1611470325.03125
1.26,1611470325.046875
7.05,1611470325.0625
12.68,1611470325.078125
17.76,1611470325.09375
21.78,1611470325.109375
24.32,1611470325.125
25.36,1611470325.140625
25.38,1611470325.15625
25.07,1611470325.171875
25.1,1611470325.1875
25.72,1611470325.203125
26.72,1611470325.21875
27.55,1611470325.234375
27.68,1611470325.25
26.91,1611470325.265625
25.37,1611470325.28125
23.44,1611470325.296875
21.46,1611470325.3125
19.54,1611470325.328125
17.51,1611470325.34375
15.03,1611470325.359375
11.78,1611470325.375
7.57,1611470325.390625
2.44,1611470325.40625
-3.49,1611470325.421875
-9.98,1611470325.4375
-16.72,1611470325.453125
-23.27,1611470325.46875
-29.12,1611470325.484375
-33.68,1611470325.5
-36.45,1611470325.515625
-37.13,1611470325.53125
-35.62,1611470325.546875
-32.06,1611470325.5625
-26.76,1611470325.578125
-20.14,1611470325.59375
-12.64,1611470325.609375
-4.71,1611470325.625
3.27,1611470325.640625
10.93,1611470325.65625
17.87,1611470325.671875
23.67,1611470325.6875
27.89,1611470325.703125
30.18,1611470325.71875
30.5,1611470325.734375
29.23,1611470325.75
27.08,1611470325.765625
24.94,1611470325.78125
23.4,1611470325.796875
22.56,1611470325.8125
22.0,1611470325.828125
21.1,1611470325.84375
19.39,1611470325.859375
16.88,1611470325.875
13.99,1611470325.890625
11.28,1611470325.90625
9.05,1611470325.921875
7.18,1611470325.9375
5.19,1611470325.953125
2.58,1611470325.96875
-0.92,1611470325.984375
-5.23,1611470326.0
-10.03,1611470326.015625
-14.93,1611470326.03125
-19.76,1611470326.046875
-24.41,1611470326.0625
-28.8,1611470326.078125
-32.59,1611470326.09375
-35.21,1611470326.109375
-35.94,1611470326.125
-34.26,1611470326.140625
-30.04,1611470326.15625
-23.74,1611470326.171875
-16.25,1611470326.1875
-8.57,1611470326.203125
-1.56,1611470326.21875
4.33,1611470326.234375
9.05,1611470326.25
12.82,1611470326.265625
15.92,1611470326.28125
18.49,1611470326.296875
20.43,1611470326.3125
21.38,1611470326.328125
20.95,1611470326.34375
18.89,1611470326.359375
15.35,1611470326.375
10.87,1611470326.390625
6.18,1611470326.40625
1.91,1611470326.421875
-1.73,1611470326.4375
-5.0,1611470326.453125
-8.44,1611470326.46875
-12.56,1611470326.484375
-17.62,1611470326.5
-23.43,1611470326.515625
-29.64,1611470326.53125
-35.89,1611470326.546875
-42.09,1611470326.5625
-48.4,1611470326.578125
-55.2,1611470326.59375
-62.87,1611470326.609375
-71.64,1611470326.625
-81.4,1611470326.640625
-91.56,1611470326.65625
-101.07,1611470326.671875
-108.77,1611470326.6875
-113.77,1611470326.703125
-116.02,1611470326.71875
-116.46,1611470326.734375
-116.79,1611470326.75
-118.64,1611470326.765625
-122.6,1611470326.78125
-127.6,1611470326.796875
-131.25,1611470326.8125
-130.85,1611470326.828125
-124.7,1611470326.84375
-112.81,1611470326.859375
-96.55,1611470326.875
-77.81,1611470326.890625
-58.07,1611470326.90625
-38.25,1611470326.921875
-19.02,1611470326.9375
-1.02,1611470326.953125
15.33,1611470326.96875
30.46,1611470326.984375
45.85,1611470327.0
63.61,1611470327.015625
85.11,1611470327.03125
109.68,1611470327.046875
134.42,1611470327.0625
155.41,1611470327.078125
169.88,1611470327.09375
178.0,1611470327.109375
183.24,1611470327.125
190.91,1611470327.140625
205.7,1611470327.15625
229.48,1611470327.171875
260.3,1611470327.1875
293.05,1611470327.203125
321.11,1611470327.21875
338.64,1611470327.234375
342.39,1611470327.25
332.48,1611470327.265625
312.01,1611470327.28125
285.4,1611470327.296875
256.5,1611470327.3125
227.2,1611470327.328125
197.36,1611470327.34375
165.91,1611470327.359375
132.38,1611470327.375
97.74,1611470327.390625
64.16,1611470327.40625
33.84,1611470327.421875
7.75,1611470327.4375
-14.7,1611470327.453125
-35.02,1611470327.46875
-54.31,1611470327.484375
-72.45,1611470327.5
-87.97,1611470327.515625
-98.91,1611470327.53125
-104.08,1611470327.546875
-103.82,1611470327.5625
-100.04,1611470327.578125
-95.42,1611470327.59375
-92.36,1611470327.609375
-92.04,1611470327.625
-94.11,1611470327.640625
-97.02,1611470327.65625
-98.75,1611470327.671875
-97.76,1611470327.6875
-93.54,1611470327.703125
-86.87,1611470327.71875
-79.45,1611470327.734375
-73.22,1611470327.75
-69.58,1611470327.765625
-68.9,1611470327.78125
-70.44,1611470327.796875
-72.71,1611470327.8125
-74.17,1611470327.828125
-73.76,1611470327.84375
-71.13,1611470327.859375
-66.52,1611470327.875
-60.45,1611470327.890625
-53.34,1611470327.90625
-45.5,1611470327.921875
-37.2,1611470327.9375
-28.83,1611470327.953125
-20.95,1611470327.96875
-14.2,1611470327.984375
-9.04,1611470328.0
-5.54,1611470328.015625
-3.4,1611470328.03125
-2.14,1611470328.046875
-1.33,1611470328.0625
-0.8,1611470328.078125
-0.62,1611470328.09375
-1.01,1611470328.109375
-2.02,1611470328.125
-3.54,1611470328.140625
-5.19,1611470328.15625
-6.45,1611470328.171875
-6.86,1611470328.1875
-6.23,1611470328.203125
-4.78,1611470328.21875
-3.13,1611470328.234375
-2.12,1611470328.25
-2.48,1611470328.265625
-4.62,1611470328.28125
-8.52,1611470328.296875
-13.82,1611470328.3125
-20.09,1611470328.328125
-27.02,1611470328.34375
-34.35,1611470328.359375
-41.77,1611470328.375
-48.7,1611470328.390625
-54.33,1611470328.40625
-57.86,1611470328.421875
-58.83,1611470328.4375
-57.31,1611470328.453125
-53.92,1611470328.46875
-49.37,1611470328.484375
-44.16,1611470328.5
-38.33,1611470328.515625
-31.6,1611470328.53125
-23.71,1611470328.546875
-14.8,1611470328.5625
-5.57,1611470328.578125
2.93,1611470328.59375
9.66,1611470328.609375
14.09,1611470328.625
16.34,1611470328.640625
17.06,1611470328.65625
17.13,1611470328.671875
17.25,1611470328.6875
17.7,1611470328.703125
18.35,1611470328.71875
18.81,1611470328.734375
18.72,1611470328.75
17.87,1611470328.765625
16.32,1611470328.78125
14.27,1611470328.796875
12.02,1611470328.8125
9.84,1611470328.828125
7.88,1611470328.84375
6.16,1611470328.859375
4.52,1611470328.875
2.68,1611470328.890625
0.27,1611470328.90625
-3.09,1611470328.921875
-7.59,1611470328.9375
-13.11,1611470328.953125
-19.11,1611470328.96875
-24.72,1611470328.984375
-28.92,1611470329.0
-30.87,1611470329.015625
-30.12,1611470329.03125
-26.78,1611470329.046875
-21.34,1611470329.0625
-14.56,1611470329.078125
-7.15,1611470329.09375
0.27,1611470329.109375
7.32,1611470329.125
13.76,1611470329.140625
19.42,1611470329.15625
24.17,1611470329.171875
27.83,1611470329.1875
30.25,1611470329.203125
31.3,1611470329.21875
30.92,1611470329.234375
29.27,1611470329.25
26.7,1611470329.265625
23.71,1611470329.28125
20.81,1611470329.296875
18.31,1611470329.3125
16.27,1611470329.328125
14.48,1611470329.34375
12.65,1611470329.359375
10.55,1611470329.375
8.18,1611470329.390625
5.67,1611470329.40625
3.14,1611470329.421875
0.59,1611470329.4375
-2.18,1611470329.453125
-5.52,1611470329.46875
-9.64,1611470329.484375
-14.56,1611470329.5
-19.91,1611470329.515625
-25.08,1611470329.53125
-29.41,1611470329.546875
-32.35,1611470329.5625
-33.56,1611470329.578125
-32.9,1611470329.59375
-30.34,1611470329.609375
-25.93,1611470329.625
-19.84,1611470329.640625
-12.48,1611470329.65625
-4.47,1611470329.671875
3.42,1611470329.6875
10.5,1611470329.703125
16.37,1611470329.71875
21.01,1611470329.734375
24.56,1611470329.75
27.22,1611470329.765625
28.95,1611470329.78125
29.58,1611470329.796875
29.0,1611470329.8125
27.34,1611470329.828125
25.02,1611470329.84375
22.57,1611470329.859375
20.35,1611470329.875
18.38,1611470329.890625
16.34,1611470329.90625
13.84,1611470329.921875
10.68,1611470329.9375
6.97,1611470329.953125
3.11,1611470329.96875
-0.53,1611470329.984375
-3.8,1611470330.0
-6.85,1611470330.015625
-10.12,1611470330.03125
-13.99,1611470330.046875
-18.62,1611470330.0625
-23.76,1611470330.078125
-28.85,1611470330.09375
-33.08,1611470330.109375
-35.73,1611470330.125
-36.24,1611470330.140625
-34.41,1611470330.15625
-30.44,1611470330.171875
-24.77,1611470330.1875
-18.04,1611470330.203125
-10.83,1611470330.21875
-3.61,1611470330.234375
3.3,1611470330.25
9.66,1611470330.265625
15.22,1611470330.28125
19.71,1611470330.296875
22.85,1611470330.3125
24.43,1611470330.328125
24.48,1611470330.34375
23.34,1611470330.359375
21.57,1611470330.375
19.78,1611470330.390625
18.37,1611470330.40625
17.44,1611470330.421875
16.72,1611470330.4375
15.81,1611470330.453125
14.4,1611470330.46875
12.41,1611470330.484375
10.04,1611470330.5
7.52,1611470330.515625
5.08,1611470330.53125
2.81,1611470330.546875
0.59,1611470330.5625
-1.73,1611470330.578125
-4.41,1611470330.59375
-7.68,1611470330.609375
-11.81,1611470330.625
-16.96,1611470330.640625
-23.04,1611470330.65625
-29.57,1611470330.671875
-35.6,1611470330.6875
-39.92,1611470330.703125
-41.44,1611470330.71875
-39.63,1611470330.734375
-34.67,1611470330.75
-27.42,1611470330.765625
-19.06,1611470330.78125
-10.63,1611470330.796875
-2.77,1611470330.8125
4.32,1611470330.828125
10.61,1611470330.84375
16.06,1611470330.859375
20.37,1611470330.875
23.16,1611470330.890625
24.11,1611470330.90625
23.32,1611470330.921875
21.35,1611470330.9375
19.01,1611470330.953125
17.05,1611470330.96875
15.77,1611470330.984375
14.99,1611470331.0
14.23,1611470331.015625
13.0,1611470331.03125
11.13,1611470331.046875
8.79,1611470331.0625
6.32,1611470331.078125
3.97,1611470331.09375
1.76,1611470331.109375
-0.47,1611470331.125
-2.9,1611470331.140625
-5.6,1611470331.15625
-8.56,1611470331.171875
-11.77,1611470331.1875
-15.38,1611470331.203125
-19.67,1611470331.21875
-24.87,1611470331.234375
-30.87,1611470331.25
-37.07,1611470331.265625
-42.38,1611470331.28125
-45.6,1611470331.296875
-45.82,1611470331.3125
-42.72,1611470331.328125
-36.69,1611470331.34375
-28.6,1611470331.359375
-19.41,1611470331.375
-9.94,1611470331.390625
-0.67,1611470331.40625
8.06,1611470331.421875
15.93,1611470331.4375
22.53,1611470331.453125
27.42,1611470331.46875
30.31,1611470331.484375
31.21,1611470331.5
30.48,1611470331.515625
28.71,1611470331.53125
26.52,1611470331.546875
24.4,1611470331.5625
22.65,1611470331.578125
21.32,1611470331.59375
20.31,1611470331.609375
19.39,1611470331.625
18.28,1611470331.640625
16.76,1611470331.65625
14.72,1611470331.671875
12.24,1611470331.6875
9.5,1611470331.703125
6.69,1611470331.71875
3.9,1611470331.734375
1.03,1611470331.75
-2.2,1611470331.765625
-6.1,1611470331.78125
-10.87,1611470331.796875
-16.42,1611470331.8125
-22.34,1611470331.828125
-27.87,1611470331.84375
-32.11,1611470331.859375
-34.22,1611470331.875
-33.64,1611470331.890625
-30.26,1611470331.90625
-24.45,1611470331.921875
-16.94,1611470331.9375
-8.6,1611470331.953125
-0.24,1611470331.96875
7.57,1611470331.984375
14.47,1611470332.0
20.28,1611470332.015625
24.84,1611470332.03125
27.97,1611470332.046875
29.56,1611470332.0625
29.63,1611470332.078125
28.43,1611470332.09375
26.44,1611470332.109375
24.22,1611470332.125
22.14,1611470332.140625
20.34,1611470332.15625
18.64,1611470332.171875
16.81,1611470332.1875
14.71,1611470332.203125
12.42,1611470332.21875
10.2,1611470332.234375
8.3,1611470332.25
6.79,1611470332.265625
5.48,1611470332.28125
3.98,1611470332.296875
1.89,1611470332.3125
-1.09,1611470332.328125
-5.08,1611470332.34375
-10.0,1611470332.359375
-15.59,1611470332.375
-21.48,1611470332.390625
-27.14,1611470332.40625
-31.9,1611470332.421875
-35.06,1611470332.4375
-35.99,1611470332.453125
-34.34,1611470332.46875
-30.13,1611470332.484375
-23.8,1611470332.5
-16.07,1611470332.515625
-7.82,1611470332.53125
0.18,1611470332.546875
7.38,1611470332.5625
13.48,1611470332.578125
18.44,1611470332.59375
22.28,1611470332.609375
25.06,1611470332.625
26.78,1611470332.640625
27.42,1611470332.65625
27.0,1611470332.671875
25.63,1611470332.6875
23.56,1611470332.703125
21.09,1611470332.71875
18.57,1611470332.734375
16.22,1611470332.75
14.14,1611470332.765625
12.29,1611470332.78125
10.49,1611470332.796875
8.55,1611470332.8125
6.33,1611470332.828125
3.71,1611470332.84375
0.63,1611470332.859375
-2.92,1611470332.875
-6.9,1611470332.890625
-11.21,1611470332.90625
-15.68,1611470332.921875
-20.22,1611470332.9375
-24.85,1611470332.953125
-29.71,1611470332.96875
-34.97,1611470332.984375
-40.61,1611470333.0
-46.15,1611470333.015625
-50.7,1611470333.03125
-53.11,1611470333.046875
-52.43,1611470333.0625
-48.33,1611470333.078125
-41.35,1611470333.09375
-32.75,1611470333.109375
-24.03,1611470333.125
-16.49,1611470333.140625
-10.73,1611470333.15625
-6.62,1611470333.171875
-3.52,1611470333.1875
-0.73,1611470333.203125
2.13,1611470333.21875
4.84,1611470333.234375
6.72,1611470333.25
6.86,1611470333.265625
4.55,1611470333.28125
-0.35,1611470333.296875
-7.37,1611470333.3125
-15.41,1611470333.328125
-22.84,1611470333.34375
-27.75,1611470333.359375
-28.19,1611470333.375
-22.78,1611470333.390625
-11.36,1611470333.40625
4.58,1611470333.421875
21.85,1611470333.4375
36.27,1611470333.453125
44.06,1611470333.46875
43.15,1611470333.484375
34.13,1611470333.5
19.98,1611470333.515625
4.95,1611470333.53125
-7.15,1611470333.546875
-14.16,1611470333.5625
-16.01,1611470333.578125
-14.12,1611470333.59375
-10.2,1611470333.609375
-5.26,1611470333.625
0.68,1611470333.640625
8.18,1611470333.65625
17.7,1611470333.671875
28.96,1611470333.6875
40.94,1611470333.703125
52.33,1611470333.71875
62.16,1611470333.734375
70.2,1611470333.75
76.86,1611470333.765625
82.73,1611470333.78125
88.16,1611470333.796875
93.1,1611470333.8125
97.23,1611470333.828125
100.32,1611470333.84375
102.37,1611470333.859375
103.6,1611470333.875
104.27,1611470333.890625
104.47,1611470333.90625
104.2,1611470333.921875
103.4,1611470333.9375
102.11,1611470333.953125
100.22,1611470333.96875
97.38,1611470333.984375
92.91,1611470334.0
86.01,1611470334.015625
76.16,1611470334.03125
63.52,1611470334.046875
49.02,1611470334.0625
34.04,1611470334.078125
19.84,1611470334.09375
7.04,1611470334.109375
-4.41,1611470334.125
-15.12,1611470334.140625
-25.63,1611470334.15625
-36.13,1611470334.171875
-46.31,1611470334.1875
-55.59,1611470334.203125
-63.51,1611470334.21875
-70.04,1611470334.234375
-75.75,1611470334.25
-81.57,1611470334.265625
-88.38,1611470334.28125
-96.56,1611470334.296875
-105.67,1611470334.3125
-114.52,1611470334.328125
-121.53,1611470334.34375
-125.24,1611470334.359375
-124.84,1611470334.375
-120.27,1611470334.390625
-112.11,1611470334.40625
-101.25,1611470334.421875
-88.61,1611470334.4375
-74.97,1611470334.453125
-60.94,1611470334.46875
-47.1,1611470334.484375
-33.95,1611470334.5
-21.97,1611470334.515625
-11.51,1611470334.53125
-2.75,1611470334.546875
4.24,1611470334.5625
9.56,1611470334.578125
13.42,1611470334.59375
16.11,1611470334.609375
17.98,1611470334.625
19.32,1611470334.640625
20.29,1611470334.65625
20.97,1611470334.671875
21.34,1611470334.6875
21.45,1611470334.703125
21.39,1611470334.71875
21.34,1611470334.734375
21.38,1611470334.75
21.39,1611470334.765625
21.09,1611470334.78125
20.05,1611470334.796875
17.9,1611470334.8125
14.54,1611470334.828125
10.22,1611470334.84375
5.52,1611470334.859375
1.1,1611470334.875
-2.49,1611470334.890625
-5.09,1611470334.90625
-6.97,1611470334.921875
-8.77,1611470334.9375
-11.25,1611470334.953125
-15.0,1611470334.96875
-20.18,1611470334.984375
-26.37,1611470335.0
-32.66,1611470335.015625
-37.89,1611470335.03125
-40.98,1611470335.046875
-41.23,1611470335.0625
-38.49,1611470335.078125
-33.18,1611470335.09375
-26.05,1611470335.109375
-18.0,1611470335.125
-9.89,1611470335.140625
-2.38,1611470335.15625
4.12,1611470335.171875
9.46,1611470335.1875
13.76,1611470335.203125
17.29,1611470335.21875
20.43,1611470335.234375
23.45,1611470335.25
26.38,1611470335.265625
29.05,1611470335.28125
31.06,1611470335.296875
32.02,1611470335.3125
31.75,1611470335.328125
30.37,1611470335.34375
28.32,1611470335.359375
26.21,1611470335.375
24.6,1611470335.390625
23.75,1611470335.40625
23.53,1611470335.421875
23.46,1611470335.4375
22.89,1611470335.453125
21.29,1611470335.46875
18.47,1611470335.484375
14.64,1611470335.5
10.38,1611470335.515625
6.47,1611470335.53125
3.73,1611470335.546875
2.75,1611470335.5625
3.56,1611470335.578125
5.32,1611470335.59375
6.13,1611470335.609375
3.48,1611470335.625
-5.02,1611470335.640625
-20.36,1611470335.65625
-41.42,1611470335.671875
-64.89,1611470335.6875
-86.22,1611470335.703125
-101.18,1611470335.71875
-107.26,1611470335.734375
-104.27,1611470335.75
-93.98,1611470335.765625
-79.16,1611470335.78125
-62.53,1611470335.796875
-46.04,1611470335.8125
-30.79,1611470335.828125
-17.17,1611470335.84375
-5.21,1611470335.859375
5.13,1611470335.875
13.72,1611470335.890625
20.25,1611470335.90625
24.25,1611470335.921875
25.46,1611470335.9375
24.21,1611470335.953125
21.56,1611470335.96875
19.02,1611470335.984375
17.92,1611470336.0
18.82,1611470336.015625
21.2,1611470336.03125
23.84,1611470336.046875
25.54,1611470336.0625
25.8,1611470336.078125
24.89,1611470336.09375
23.51,1611470336.109375
22.1,1611470336.125
20.43,1611470336.140625
17.72,1611470336.15625
13.1,1611470336.171875
6.25,1611470336.1875
-2.33,1611470336.203125
-11.47,1611470336.21875
-19.81,1611470336.234375
-26.37,1611470336.25
-30.81,1611470336.265625
-33.39,1611470336.28125
-34.68,1611470336.296875
-35.14,1611470336.3125
-34.94,1611470336.328125
-33.92,1611470336.34375
-31.88,1611470336.359375
-28.72,1611470336.375
-24.64,1611470336.390625
-20.01,1611470336.40625
-15.19,1611470336.421875
-10.37,1611470336.4375
-5.49,1611470336.453125
-0.37,1611470336.46875
5.12,1611470336.484375
10.95,1611470336.5
17.03,1611470336.515625
23.24,1611470336.53125
29.55,1611470336.546875
36.02,1611470336.5625
42.68,1611470336.578125
49.39,1611470336.59375
55.86,1611470336.609375
61.61,1611470336.625
66.1,1611470336.640625
68.88,1611470336.65625
69.67,1611470336.671875
68.53,1611470336.6875
65.83,1611470336.703125
62.19,1611470336.71875
58.38,1611470336.734375
55.08,1611470336.75
52.65,1611470336.765625
51.04,1611470336.78125
49.78,1611470336.796875
48.21,1611470336.8125
45.72,1611470336.828125
41.95,1611470336.84375
36.9,1611470336.859375
30.83,1611470336.875
24.1,1611470336.890625
17.11,1611470336.90625
10.31,1611470336.921875
4.38,1611470336.9375
0.31,1611470336.953125
-0.7,1611470336.96875
2.2,1611470336.984375
8.84,1611470337.0
17.61,1611470337.015625
25.86,1611470337.03125
30.79,1611470337.046875
30.74,1611470337.0625
25.94,1611470337.078125
18.29,1611470337.09375
10.5,1611470337.109375
4.87,1611470337.125
2.54,1611470337.140625
3.57,1611470337.15625
7.41,1611470337.171875
13.45,1611470337.1875
21.11,1611470337.203125
29.46,1611470337.21875
36.93,1611470337.234375
41.3,1611470337.25
40.4,1611470337.265625
32.99,1611470337.28125
19.38,1611470337.296875
1.53,1611470337.3125
-17.63,1611470337.328125
-35.15,1611470337.34375
-48.94,1611470337.359375
-58.29,1611470337.375
-63.78,1611470337.390625
-66.76,1611470337.40625
-68.68,1611470337.421875
-70.52,1611470337.4375
-72.53,1611470337.453125
-74.47,1611470337.46875
-75.87,1611470337.484375
-76.5,1611470337.5
-76.49,1611470337.515625
-76.26,1611470337.53125
-76.21,1611470337.546875
-76.58,1611470337.5625
-77.31,1611470337.578125
-78.25,1611470337.59375
-79.15,1611470337.609375
-79.78,1611470337.625
-79.75,1611470337.640625
-78.53,1611470337.65625
-75.46,1611470337.671875
-70.06,1611470337.6875
-62.28,1611470337.703125
-52.7,1611470337.71875
-42.4,1611470337.734375
-32.62,1611470337.75
-24.26,1611470337.765625
-17.7,1611470337.78125
-12.66,1611470337.796875
-8.53,1611470337.8125
-4.66,1611470337.828125
-0.59,1611470337.84375
3.85,1611470337.859375
8.58,1611470337.875
13.44,1611470337.890625
18.2,1611470337.90625
22.65,1611470337.921875
26.6,1611470337.9375
29.87,1611470337.953125
32.28,1611470337.96875
33.72,1611470337.984375
34.22,1611470338.0
33.9,1611470338.015625
33.05,1611470338.03125
31.99,1611470338.046875
30.96,1611470338.0625
30.06,1611470338.078125
29.15,1611470338.09375
27.99,1611470338.109375
26.23,1611470338.125
23.62,1611470338.140625
20.09,1611470338.15625
15.8,1611470338.171875
11.13,1611470338.1875
6.62,1611470338.203125
2.77,1611470338.21875
-0.13,1611470338.234375
-2.16,1611470338.25
-3.7,1611470338.265625
-5.22,1611470338.28125
-6.99,1611470338.296875
-8.85,1611470338.3125
-10.23,1611470338.328125
-10.44,1611470338.34375
-9.1,1611470338.359375
-6.49,1611470338.375
-3.5,1611470338.390625
-1.37,1611470338.40625
-1.17,1611470338.421875
-3.38,1611470338.4375
-7.81,1611470338.453125
-13.77,1611470338.46875
-20.43,1611470338.484375
-27.16,1611470338.5
-33.68,1611470338.515625
-40.06,1611470338.53125
-46.49,1611470338.546875
-53.12,1611470338.5625
-60.03,1611470338.578125
-67.16,1611470338.59375
-74.32,1611470338.609375
-81.26,1611470338.625
-87.6,1611470338.640625
-92.89,1611470338.65625
-96.59,1611470338.671875
-98.3,1611470338.6875
-98.1,1611470338.703125
-96.75,1611470338.71875
-95.52,1611470338.734375
-95.68,1611470338.75
-97.8,1611470338.765625
-101.25,1611470338.78125
-104.41,1611470338.796875
-105.46,1611470338.8125
-103.45,1611470338.828125
-98.93,1611470338.84375
-93.74,1611470338.859375
-89.97,1611470338.875
-88.63,1611470338.890625
-88.94,1611470338.90625
-88.59,1611470338.921875
-84.93,1611470338.9375
-76.37,1611470338.953125
-63.1,1611470338.96875
-46.84,1611470338.984375
-29.83,1611470339.0
-13.72,1611470339.015625
0.8,1611470339.03125
13.78,1611470339.046875
25.28,1611470339.0625
35.04,1611470339.078125
42.48,1611470339.09375
47.34,1611470339.109375
50.11,1611470339.125
51.99,1611470339.140625
54.37,1611470339.15625
58.18,1611470339.171875
63.55,1611470339.1875
69.95,1611470339.203125
76.66,1611470339.21875
83.11,1611470339.234375
88.96,1611470339.25
93.78,1611470339.265625
96.87,1611470339.28125
97.39,1611470339.296875
94.89,1611470339.3125
89.72,1611470339.328125
83.23,1611470339.34375
77.27,1611470339.359375
73.35,1611470339.375
72.01,1611470339.390625
72.49,1611470339.40625
72.99,1611470339.421875
71.27,1611470339.4375
65.45,1611470339.453125
54.84,1611470339.46875
40.47,1611470339.484375
25.42,1611470339.5
14.49,1611470339.515625
13.21,1611470339.53125
26.16,1611470339.546875
55.09,1611470339.5625
97.64,1611470339.578125
147.33,1611470339.59375
195.18,1611470339.609375
232.33,1611470339.625
252.68,1611470339.640625
254.45,1611470339.65625
240.08,1611470339.671875
214.71,1611470339.6875
184.18,1611470339.703125
153.26,1611470339.71875
124.92,1611470339.734375
100.42,1611470339.75
79.87,1611470339.765625
62.84,1611470339.78125
48.62,1611470339.796875
36.28,1611470339.8125
24.78,1611470339.828125
13.14,1611470339.84375
0.81,1611470339.859375
-12.05,1611470339.875
-24.66,1611470339.890625
-35.89,1611470339.90625
-44.71,1611470339.921875
-50.67,1611470339.9375
-54.03,1611470339.953125
-55.66,1611470339.96875
-56.57,1611470339.984375
-57.56,1611470340.0
-59.04,1611470340.015625
-61.01,1611470340.03125
-63.31,1611470340.046875
-65.78,1611470340.0625
-68.21,1611470340.078125
-70.27,1611470340.09375
-71.4,1611470340.109375
-70.93,1611470340.125
-68.38,1611470340.140625
-63.77,1611470340.15625
-57.69,1611470340.171875
-51.12,1611470340.1875
-45.01,1611470340.203125
-39.94,1611470340.21875
-35.87,1611470340.234375
-32.37,1611470340.25
-28.87,1611470340.265625
-25.0,1611470340.28125
-20.77,1611470340.296875
-16.53,1611470340.3125
-12.76,1611470340.328125
-9.82,1611470340.34375
-7.79,1611470340.359375
-6.44,1611470340.375
-5.39,1611470340.390625
-4.25,1611470340.40625
-2.86,1611470340.421875
-1.37,1611470340.4375
-0.11,1611470340.453125
0.54,1611470340.46875
0.41,1611470340.484375
-0.39,1611470340.5
-1.52,1611470340.515625
-2.58,1611470340.53125
-3.34,1611470340.546875
-3.86,1611470340.5625
-4.44,1611470340.578125
-5.48,1611470340.59375
-7.33,1611470340.609375
-10.08,1611470340.625
-13.6,1611470340.640625
-17.55,1611470340.65625
-21.51,1611470340.671875
-25.05,1611470340.6875
-27.77,1611470340.703125
-29.41,1611470340.71875
-29.82,1611470340.734375
-28.94,1611470340.75
-26.8,1611470340.765625
-23.49,1611470340.78125
-19.19,1611470340.796875
-14.16,1611470340.8125
-8.86,1611470340.828125
-3.85,1611470340.84375
0.41,1611470340.859375
3.67,1611470340.875
6.06,1611470340.890625
7.99,1611470340.90625
9.92,1611470340.921875
12.11,1611470340.9375
14.44,1611470340.953125
16.58,1611470340.96875
18.15,1611470340.984375
19.0,1611470341.0
19.21,1611470341.015625
18.99,1611470341.03125
18.45,1611470341.046875
17.51,1611470341.0625
16.03,1611470341.078125
13.92,1611470341.09375
11.31,1611470341.109375
8.52,1611470341.125
5.95,1611470341.140625
3.84,1611470341.15625
2.18,1611470341.171875
0.82,1611470341.1875
-0.41,1611470341.203125
-1.67,1611470341.21875
-3.02,1611470341.234375
-4.59,1611470341.25
-6.55,1611470341.265625
-9.01,1611470341.28125
-11.94,1611470341.296875
-14.94,1611470341.3125
-17.4,1611470341.328125
-18.65,1611470341.34375
-18.29,1611470341.359375
-16.38,1611470341.375
-13.31,1611470341.390625
-9.58,1611470341.40625
-5.51,1611470341.421875
-1.21,1611470341.4375
3.36,1611470341.453125
8.1,1611470341.46875
12.68,1611470341.484375
16.59,1611470341.5
19.41,1611470341.515625
21.05,1611470341.53125
21.76,1611470341.546875
21.96,1611470341.5625
21.94,1611470341.578125
21.68,1611470341.59375
20.85,1611470341.609375
19.09,1611470341.625
16.29,1611470341.640625
12.82,1611470341.65625
9.41,1611470341.671875
6.77,1611470341.6875
5.29,1611470341.703125
4.73,1611470341.71875
4.44,1611470341.734375
3.7,1611470341.75
2.08,1611470341.765625
-0.41,1611470341.78125
-3.42,1611470341.796875
-6.7,1611470341.8125
-10.26,1611470341.828125
-14.37,1611470341.84375
-19.33,1611470341.859375
-25.08,1611470341.875
-31.08,1611470341.890625
-36.38,1611470341.90625
-40.02,1611470341.921875
-41.36,1611470341.9375
-40.21,1611470341.953125
-36.84,1611470341.96875
-31.75,1611470341.984375
-25.62,1611470342.0
-19.03,1611470342.015625
-12.47,1611470342.03125
-6.23,1611470342.046875
-0.42,1611470342.0625
5.0,1611470342.078125
10.04,1611470342.09375
14.55,1611470342.109375
18.24,1611470342.125
20.75,1611470342.140625
21.92,1611470342.15625
21.87,1611470342.171875
20.97,1611470342.1875
19.69,1611470342.203125
18.39,1611470342.21875
17.25,1611470342.234375
16.26,1611470342.25
15.4,1611470342.265625
14.69,1611470342.28125
14.17,1611470342.296875
13.82,1611470342.3125
13.44,1611470342.328125
12.76,1611470342.34375
11.51,1611470342.359375
9.68,1611470342.375
7.46,1611470342.390625
5.16,1611470342.40625
3.0,1611470342.421875
0.93,1611470342.4375
-1.4,1611470342.453125
-4.38,1611470342.46875
-8.19,1611470342.484375
-12.61,1611470342.5
-16.98,1611470342.515625
-20.44,1611470342.53125
-22.21,1611470342.546875
-21.97,1611470342.5625
-19.87,1611470342.578125
-16.37,1611470342.59375
-12.04,1611470342.609375
-7.3,1611470342.625
-2.34,1611470342.640625
2.72,1611470342.65625
7.72,1611470342.671875
12.33,1611470342.6875
16.06,1611470342.703125
18.45,1611470342.71875
19.24,1611470342.734375
18.53,1611470342.75
16.75,1611470342.765625
14.56,1611470342.78125
12.55,1611470342.796875
11.1,1611470342.8125
10.26,1611470342.828125
9.77,1611470342.84375
9.22,1611470342.859375
8.24,1611470342.875
6.63,1611470342.890625
4.5,1611470342.90625
2.14,1611470342.921875
-0.07,1611470342.9375
-1.85,1611470342.953125
-3.16,1611470342.96875
-4.18,1611470342.984375
-5.27,1611470343.0
-6.8,1611470343.015625
-9.01,1611470343.03125
-11.89,1611470343.046875
-15.31,1611470343.0625
-18.92,1611470343.078125
-22.31,1611470343.09375
-25.02,1611470343.109375
-26.66,1611470343.125
-26.88,1611470343.140625
-25.55,1611470343.15625
-22.74,1611470343.171875
-18.69,1611470343.1875
-13.78,1611470343.203125
-8.4,1611470343.21875
-2.84,1611470343.234375
2.67,1611470343.25
7.99,1611470343.265625
12.95,1611470343.28125
17.37,1611470343.296875
20.99,1611470343.3125
23.54,1611470343.328125
24.87,1611470343.34375
24.91,1611470343.359375
23.8,1611470343.375
21.84,1611470343.390625
19.42,1611470343.40625
17.02,1611470343.421875
15.02,1611470343.4375
13.69,1611470343.453125
13.02,1611470343.46875
12.78,1611470343.484375
12.59,1611470343.5
11.97,1611470343.515625
10.51,1611470343.53125
8.04,1611470343.546875
4.56,1611470343.5625
0.3,1611470343.578125
-4.44,1611470343.59375
-9.41,1611470343.609375
-14.52,1611470343.625
-19.79,1611470343.640625
-25.2,1611470343.65625
-30.53,1611470343.671875
-35.3,1611470343.6875
-38.88,1611470343.703125
-40.79,1611470343.71875
-40.83,1611470343.734375
-39.23,1611470343.75
-36.44,1611470343.765625
-32.88,1611470343.78125
-28.79,1611470343.796875
-24.24,1611470343.8125
-19.35,1611470343.828125
-14.37,1611470343.84375
-9.72,1611470343.859375
-5.73,1611470343.875
-2.46,1611470343.890625
0.45,1611470343.90625
3.47,1611470343.921875
6.87,1611470343.9375
10.5,1611470343.953125
13.81,1611470343.96875
16.23,1611470343.984375
17.47,1611470344.0
17.68,1611470344.015625
17.29,1611470344.03125
16.71,1611470344.046875
16.15,1611470344.0625
15.54,1611470344.078125
14.78,1611470344.09375
13.84,1611470344.109375
12.8,1611470344.125
11.73,1611470344.140625
10.51,1611470344.15625
8.86,1611470344.171875
6.44,1611470344.1875
3.09,1611470344.203125
-1.07,1611470344.21875
-5.7,1611470344.234375
-10.44,1611470344.25
-15.12,1611470344.265625
-19.74,1611470344.28125
-24.41,1611470344.296875
-29.07,1611470344.3125
-33.43,1611470344.328125
-36.96,1611470344.34375
-39.09,1611470344.359375
-39.4,1611470344.375
-37.79,1611470344.390625
-34.45,1611470344.40625
-29.74,1611470344.421875
-24.06,1611470344.4375
-17.68,1611470344.453125
-10.79,1611470344.46875
-3.53,1611470344.484375
3.87,1611470344.5
11.08,1611470344.515625
17.66,1611470344.53125
23.22,1611470344.546875
27.5,1611470344.5625
30.45,1611470344.578125
32.18,1611470344.59375
32.82,1611470344.609375
32.49,1611470344.625
31.27,1611470344.640625
29.31,1611470344.65625
26.92,1611470344.671875
24.5,1611470344.6875
22.44,1611470344.703125
20.9,1611470344.71875
19.72,1611470344.734375
18.47,1611470344.75
16.68,1611470344.765625
14.12,1611470344.78125
10.9,1611470344.796875
7.37,1611470344.8125
3.98,1611470344.828125
0.93,1611470344.84375
-1.86,1611470344.859375
-4.68,1611470344.875
-7.91,1611470344.890625
-11.76,1611470344.90625
-16.3,1611470344.921875
-21.41,1611470344.9375
-26.81,1611470344.953125
-32.13,1611470344.96875
-36.9,1611470344.984375
-40.6,1611470345.0
-42.68,1611470345.015625
-42.72,1611470345.03125
-40.47,1611470345.046875
-36.0,1611470345.0625
-29.66,1611470345.078125
-22.03,1611470345.09375
-13.88,1611470345.109375
-5.95,1611470345.125
1.17,1611470345.140625
7.17,1611470345.15625
12.08,1611470345.171875
16.2,1611470345.1875
19.86,1611470345.203125
23.19,1611470345.21875
26.06,1611470345.234375
28.06,1611470345.25
28.75,1611470345.265625
27.95,1611470345.28125
25.82,1611470345.296875
22.91,1611470345.3125
19.9,1611470345.328125
17.36,1611470345.34375
15.56,1611470345.359375
14.38,1611470345.375
13.44,1611470345.390625
12.29,1611470345.40625
10.64,1611470345.421875
8.41,1611470345.4375
5.75,1611470345.453125
2.87,1611470345.46875
-0.1,1611470345.484375
-3.19,1611470345.5
-6.61,1611470345.515625
-10.61,1611470345.53125
-15.38,1611470345.546875
-20.92,1611470345.5625
-27.04,1611470345.578125
-33.37,1611470345.59375
-39.45,1611470345.609375
-44.73,1611470345.625
-48.71,1611470345.640625
-50.98,1611470345.65625
-51.42,1611470345.671875
-50.14,1611470345.6875
-47.53,1611470345.703125
-44.05,1611470345.71875
-40.02,1611470345.734375
-35.49,1611470345.75
-30.32,1611470345.765625
-24.37,1611470345.78125
-17.81,1611470345.796875
-11.34,1611470345.8125
-6.12,1611470345.828125
-3.47,1611470345.84375
-4.27,1611470345.859375
-8.57,1611470345.875
-15.3,1611470345.890625
-22.58,1611470345.90625
-28.36,1611470345.921875
-31.29,1611470345.9375
-31.26,1611470345.953125
-29.46,1611470345.96875
-27.88,1611470345.984375
-28.41,1611470346.0
-31.82,1611470346.015625
-37.2,1611470346.03125
-41.97,1611470346.046875
-42.63,1611470346.0625
-36.07,1611470346.078125
-20.9,1611470346.09375
1.65,1611470346.109375
27.8,1611470346.125
52.06,1611470346.140625
68.83,1611470346.15625
74.19,1611470346.171875
67.28,1611470346.1875
50.95,1611470346.203125
31.27,1611470346.21875
16.13,1611470346.234375
13.05,1611470346.25
26.74,1611470346.265625
57.31,1611470346.28125
99.81,1611470346.296875
145.56,1611470346.3125
184.76,1611470346.328125
209.75,1611470346.34375
217.15,1611470346.359375
208.28,1611470346.375
187.8,1611470346.390625
161.53,1611470346.40625
134.44,1611470346.421875
109.74,1611470346.4375
89.01,1611470346.453125
72.77,1611470346.46875
60.86,1611470346.484375
52.4,1611470346.5
45.77,1611470346.515625
38.85,1611470346.53125
29.7,1611470346.546875
17.56,1611470346.5625
3.36,1611470346.578125
-10.53,1611470346.59375
-21.43,1611470346.609375
-27.51,1611470346.625
-28.7,1611470346.640625
-26.61,1611470346.65625
-23.74,1611470346.671875
-22.41,1611470346.6875
-23.79,1611470346.703125
-27.7,1611470346.71875
-32.95,1611470346.734375
-38.11,1611470346.75
-42.13,1611470346.765625
-44.82,1611470346.78125
-46.6,1611470346.796875
-48.18,1611470346.8125
-50.11,1611470346.828125
-52.46,1611470346.84375
-54.89,1611470346.859375
-56.81,1611470346.875
-57.66,1611470346.890625
-57.0,1611470346.90625
-54.64,1611470346.921875
-50.52,1611470346.9375
-44.69,1611470346.953125
-37.42,1611470346.96875
-29.18,1611470346.984375
-20.7,1611470347.0
-12.78,1611470347.015625
-6.11,1611470347.03125
-1.08,1611470347.046875
2.31,1611470347.0625
4.35,1611470347.078125
5.52,1611470347.09375
6.28,1611470347.109375
6.95,1611470347.125
7.71,1611470347.140625
8.56,1611470347.15625
9.35,1611470347.171875
9.85,1611470347.1875
9.81,1611470347.203125
9.05,1611470347.21875
7.58,1611470347.234375
5.65,1611470347.25
3.59,1611470347.265625
1.76,1611470347.28125
0.34,1611470347.296875
-0.72,1611470347.3125
-1.64,1611470347.328125
-2.75,1611470347.34375
-4.33,1611470347.359375
-6.57,1611470347.375
-9.51,1611470347.390625
-13.06,1611470347.40625
-17.06,1611470347.421875
-21.33,1611470347.4375
-25.69,1611470347.453125
-29.91,1611470347.46875
-33.68,1611470347.484375
-36.59,1611470347.5
-38.1,1611470347.515625
-37.75,1611470347.53125
-35.35,1611470347.546875
-31.04,1611470347.5625
-25.31,1611470347.578125
-18.84,1611470347.59375
-12.31,1611470347.609375
-6.23,1611470347.625
-0.84,1611470347.640625
3.81,1611470347.65625
7.81,1611470347.671875
11.23,1611470347.6875
14.12,1611470347.703125
16.5,1611470347.71875
18.33,1611470347.734375
19.61,1611470347.75
20.32,1611470347.765625
20.44,1611470347.78125
19.97,1611470347.796875
18.92,1611470347.8125
17.33,1611470347.828125
15.3,1611470347.84375
13.05,1611470347.859375
10.91,1611470347.875
9.22,1611470347.890625
8.15,1611470347.90625
7.63,1611470347.921875
7.32,1611470347.9375
6.77,1611470347.953125
5.63,1611470347.96875
3.82,1611470347.984375
1.55,1611470348.0
-0.89,1611470348.015625
-3.25,1611470348.03125
-5.58,1611470348.046875
-8.17,1611470348.0625
-11.31,1611470348.078125
-15.11,1611470348.09375
-19.36,1611470348.109375
-23.53,1611470348.125
-27.0,1611470348.140625
-29.23,1611470348.15625
-29.87,1611470348.171875
-28.78,1611470348.1875
-25.94,1611470348.203125
-21.45,1611470348.21875
-15.57,1611470348.234375
-8.71,1611470348.25
-1.48,1611470348.265625
5.54,1611470348.28125
11.84,1611470348.296875
17.15,1611470348.3125
21.42,1611470348.328125
24.7,1611470348.34375
26.99,1611470348.359375
28.23,1611470348.375
28.35,1611470348.390625
27.47,1611470348.40625
25.92,1611470348.421875
24.18,1611470348.4375
22.7,1611470348.453125
21.71,1611470348.46875
21.13,1611470348.484375
20.67,1611470348.5
20.03,1611470348.515625
18.99,1611470348.53125
17.5,1611470348.546875
15.6,1611470348.5625
13.37,1611470348.578125
10.88,1611470348.59375
8.23,1611470348.609375
5.56,1611470348.625
3.07,1611470348.640625
0.84,1611470348.65625
-1.21,1611470348.671875
-3.35,1611470348.6875
-5.91,1611470348.703125
-9.07,1611470348.71875
-12.78,1611470348.734375
-16.77,1611470348.75
-20.75,1611470348.765625
-24.59,1611470348.78125
-28.26,1611470348.796875
-31.69,1611470348.8125
-34.54,1611470348.828125
-36.13,1611470348.84375
-35.64,1611470348.859375
-32.5,1611470348.875
-26.78,1611470348.890625
-19.34,1611470348.90625
-11.47,1611470348.921875
-4.45,1611470348.9375
0.98,1611470348.953125
4.79,1611470348.96875
7.44,1611470348.984375
9.54,1611470349.0
11.45,1611470349.015625
13.26,1611470349.03125
14.81,1611470349.046875
15.98,1611470349.0625
16.75,1611470349.078125
17.29,1611470349.09375
17.8,1611470349.109375
18.39,1611470349.125
19.1,1611470349.140625
19.79,1611470349.15625
20.3,1611470349.171875
20.35,1611470349.1875
19.7,1611470349.203125
18.19,1611470349.21875
15.84,1611470349.234375
12.87,1611470349.25
9.67,1611470349.265625
6.6,1611470349.28125
3.87,1611470349.296875
1.62,1611470349.3125
-0.15,1611470349.328125
-1.51,1611470349.34375
-2.63,1611470349.359375
-3.85,1611470349.375
-5.69,1611470349.390625
-8.67,1611470349.40625
-13.01,1611470349.421875
-18.38,1611470349.4375
-23.85,1611470349.453125
-28.2,1611470349.46875
-30.37,1611470349.484375
-29.89,1611470349.5
-27.07,1611470349.515625
-22.74,1611470349.53125
-17.91,1611470349.546875
-13.33,1611470349.5625
-9.34,1611470349.578125
-5.92,1611470349.59375
-2.91,1611470349.609375
-0.19,1611470349.625
2.16,1611470349.640625
3.9,1611470349.65625
4.79,1611470349.671875
4.74,1611470349.6875
3.95,1611470349.703125
2.84,1611470349.71875
1.91,1611470349.734375
1.53,1611470349.75
1.8,1611470349.765625
2.44,1611470349.78125
3.04,1611470349.796875
3.2,1611470349.8125
2.76,1611470349.828125
1.83,1611470349.84375
0.6,1611470349.859375
-0.86,1611470349.875
-2.68,1611470349.890625
-5.18,1611470349.90625
-8.61,1611470349.921875
-12.94,1611470349.9375
-17.78,1611470349.953125
-22.61,1611470349.96875
-26.93,1611470349.984375
-30.53,1611470350.0
-33.44,1611470350.015625
-35.79,1611470350.03125
-37.56,1611470350.046875
-38.51,1611470350.0625
-38.17,1611470350.078125
-36.08,1611470350.09375
-32.08,1611470350.109375
-26.35,1611470350.125
-19.44,1611470350.140625
-12.07,1611470350.15625
-4.92,1611470350.171875
1.53,1611470350.1875
7.08,1611470350.203125
11.72,1611470350.21875
15.58,1611470350.234375
18.76,1611470350.25
21.31,1611470350.265625
23.18,1611470350.28125
24.31,1611470350.296875
24.69,1611470350.3125
24.4,1611470350.328125
23.65,1611470350.34375
22.63,1611470350.359375
21.52,1611470350.375
20.34,1611470350.390625
19.04,1611470350.40625
17.55,1611470350.421875
15.85,1611470350.4375
14.07,1611470350.453125
12.36,1611470350.46875
10.89,1611470350.484375
9.64,1611470350.5
8.46,1611470350.515625
7.08,1611470350.53125
5.33,1611470350.546875
3.16,1611470350.5625
0.65,1611470350.578125
-2.09,1611470350.59375
-5.1,1611470350.609375
-8.6,1611470350.625
-12.79,1611470350.640625
-17.7,1611470350.65625
-22.89,1611470350.671875
-27.52,1611470350.6875
-30.56,1611470350.703125
-31.16,1611470350.71875
-29.0,1611470350.734375
-24.44,1611470350.75
-18.32,1611470350.765625
-11.72,1611470350.78125
-5.54,1611470350.796875
-0.32,1611470350.8125
3.74,1611470350.828125
6.77,1611470350.84375
9.02,1611470350.859375
10.8,1611470350.875
12.42,1611470350.890625
14.13,1611470350.90625
16.06,1611470350.921875
18.19,1611470350.9375
20.32,1611470350.953125
22.17,1611470350.96875
23.42,1611470350.984375
23.86,1611470351.0
23.41,1611470351.015625
22.12,1611470351.03125
20.07,1611470351.046875
17.41,1611470351.0625
14.28,1611470351.078125
10.87,1611470351.09375
7.36,1611470351.109375
3.97,1611470351.125
0.84,1611470351.140625
-1.95,1611470351.15625
-4.38,1611470351.171875
-6.48,1611470351.1875
-8.35,1611470351.203125
-10.17,1611470351.21875
-12.26,1611470351.234375
-15.06,1611470351.25
-18.97,1611470351.265625
-24.14,1611470351.28125
-30.32,1611470351.296875
-36.75,1611470351.3125
-42.38,1611470351.328125
-46.19,1611470351.34375
-47.53,1611470351.359375
-46.32,1611470351.375
-43.04,1611470351.390625
-38.44,1611470351.40625
-33.25,1611470351.421875
-28.01,1611470351.4375
-23.06,1611470351.453125
-18.58,1611470351.46875
-14.71,1611470351.484375
-11.48,1611470351.5
-8.88,1611470351.515625
-6.75,1611470351.53125
-4.93,1611470351.546875
-3.25,1611470351.5625
-1.66,1611470351.578125
-0.17,1611470351.59375
1.27,1611470351.609375
2.81,1611470351.625
4.61,1611470351.640625
6.77,1611470351.65625
9.12,1611470351.671875
11.3,1611470351.6875
12.9,1611470351.703125
13.67,1611470351.71875
13.62,1611470351.734375
12.96,1611470351.75
11.91,1611470351.765625
10.49,1611470351.78125
8.6,1611470351.796875
6.07,1611470351.8125
2.92,1611470351.828125
-0.54,1611470351.84375
-3.8,1611470351.859375
-6.32,1611470351.875
-7.87,1611470351.890625
-8.74,1611470351.90625
-9.6,1611470351.921875
-11.22,1611470351.9375
-14.12,1611470351.953125
-18.17,1611470351.96875
-22.55,1611470351.984375
-26.03,1611470352.0
-27.36,1611470352.015625
-25.78,1611470352.03125
-21.32,1611470352.046875
-14.8,1611470352.0625
-7.64,1611470352.078125
-1.31,1611470352.09375
3.11,1611470352.109375
5.32,1611470352.125
5.88,1611470352.140625
6.0,1611470352.15625
7.05,1611470352.171875
10.0,1611470352.1875
15.03,1611470352.203125
21.46,1611470352.21875
27.8,1611470352.234375
32.25,1611470352.25
33.19,1611470352.265625
29.88,1611470352.28125
23.03,1611470352.296875
15.2,1611470352.3125
10.43,1611470352.328125
13.17,1611470352.34375
26.7,1611470352.359375
51.52,1611470352.375
84.71,1611470352.390625
120.51,1611470352.40625
152.17,1611470352.421875
174.1,1611470352.4375
183.52,1611470352.453125
180.71,1611470352.46875
168.25,1611470352.484375
149.55,1611470352.5
127.59,1611470352.515625
104.51,1611470352.53125
81.69,1611470352.546875
60.15,1611470352.5625
40.78,1611470352.578125
24.25,1611470352.59375
10.69,1611470352.609375
-0.3,1611470352.625
-9.55,1611470352.640625
-17.95,1611470352.65625
-25.9,1611470352.671875
-33.26,1611470352.6875
-39.48,1611470352.703125
-43.92,1611470352.71875
-46.25,1611470352.734375
-46.64,1611470352.75
-45.61,1611470352.765625
-43.82,1611470352.78125
-41.92,1611470352.796875
-40.33,1611470352.8125
-39.35,1611470352.828125
-39.12,1611470352.84375
-39.65,1611470352.859375
-40.73,1611470352.875
-41.94,1611470352.890625
-42.76,1611470352.90625
-42.8,1611470352.921875
-41.95,1611470352.9375
-40.53,1611470352.953125
-39.08,1611470352.96875
-38.07,1611470352.984375
-37.71,1611470353.0
-37.76,1611470353.015625
-37.83,1611470353.03125
-37.52,1611470353.046875
-36.73,1611470353.0625
-35.61,1611470353.078125
-34.49,1611470353.09375
-33.66,1611470353.109375
-33.32,1611470353.125
-33.51,1611470353.140625
-34.19,1611470353.15625
-35.33,1611470353.171875
-36.83,1611470353.1875
-38.58,1611470353.203125
-40.3,1611470353.21875
-41.62,1611470353.234375
-42.12,1611470353.25
-41.43,1611470353.265625
-39.39,1611470353.28125
-36.03,1611470353.296875
-31.64,1611470353.3125
-26.58,1611470353.328125
-21.15,1611470353.34375
-15.49,1611470353.359375
-9.58,1611470353.375
-3.33,1611470353.390625
3.18,1611470353.40625
9.63,1611470353.421875
15.51,1611470353.4375
20.29,1611470353.453125
23.64,1611470353.46875
25.5,1611470353.484375
26.08,1611470353.5
25.69,1611470353.515625
24.6,1611470353.53125
23.04,1611470353.546875
21.2,1611470353.5625
19.36,1611470353.578125
17.78,1611470353.59375
16.66,1611470353.609375
16.0,1611470353.625
15.58,1611470353.640625
15.11,1611470353.65625
14.32,1611470353.671875
13.15,1611470353.6875
11.64,1611470353.703125
9.88,1611470353.71875
7.91,1611470353.734375
5.66,1611470353.75
3.0,1611470353.765625
-0.19,1611470353.78125
-3.91,1611470353.796875
-8.13,1611470353.8125
-12.78,1611470353.828125
-17.75,1611470353.84375
-22.88,1611470353.859375
-27.85,1611470353.875
-32.21,1611470353.890625
-35.43,1611470353.90625
-37.09,1611470353.921875
-36.93,1611470353.9375
-34.95,1611470353.953125
-31.27,1611470353.96875
-26.09,1611470353.984375
-19.69,1611470354.0
-12.49,1611470354.015625
-5.19,1611470354.03125
1.27,1611470354.046875
5.92,1611470354.0625
8.16,1611470354.078125
8.0,1611470354.09375
6.16,1611470354.109375
3.73,1611470354.125
1.76,1611470354.140625
0.87,1611470354.15625
1.09,1611470354.171875
2.05,1611470354.1875
3.27,1611470354.203125
4.35,1611470354.21875
4.99,1611470354.234375
4.94,1611470354.25
3.94,1611470354.265625
1.77,1611470354.28125
-1.53,1611470354.296875
-5.58,1611470354.3125
-9.69,1611470354.328125
-13.16,1611470354.34375
-15.57,1611470354.359375
-16.96,1611470354.375
-17.76,1611470354.390625
-18.54,1611470354.40625
-19.73,1611470354.421875
-21.34,1611470354.4375
-23.12,1611470354.453125
-24.67,1611470354.46875
-25.75,1611470354.484375
-26.43,1611470354.5
-26.95,1611470354.515625
-27.48,1611470354.53125
-27.95,1611470354.546875
-27.95,1611470354.5625
-26.92,1611470354.578125
-24.49,1611470354.59375
-20.68,1611470354.609375
-15.95,1611470354.625
-10.95,1611470354.640625
-6.21,1611470354.65625
-1.82,1611470354.671875
2.46,1611470354.6875
7.05,1611470354.703125
12.18,1611470354.71875
17.65,1611470354.734375
22.82,1611470354.75
26.82,1611470354.765625
28.89,1611470354.78125
28.74,1611470354.796875
26.68,1611470354.8125
23.51,1611470354.828125
20.3,1611470354.84375
18.03,1611470354.859375
17.26,1611470354.875
18.1,1611470354.890625
20.27,1611470354.90625
23.25,1611470354.921875
26.46,1611470354.9375
29.38,1611470354.953125
31.55,1611470354.96875
32.57,1611470354.984375
32.24,1611470355.0
30.67,1611470355.015625
28.32,1611470355.03125
25.9,1611470355.046875
24.15,1611470355.0625
23.49,1611470355.078125
23.88,1611470355.09375
24.83,1611470355.109375
25.7,1611470355.125
25.97,1611470355.140625
25.48,1611470355.15625
24.46,1611470355.171875
23.39,1611470355.1875
22.8,1611470355.203125
23.15,1611470355.21875
24.82,1611470355.234375
28.05,1611470355.25
32.96,1611470355.265625
39.52,1611470355.28125
47.4,1611470355.296875
55.96,1611470355.3125
64.16,1611470355.328125
70.73,1611470355.34375
74.41,1611470355.359375
74.5,1611470355.375
71.27,1611470355.390625
66.15,1611470355.40625
61.44,1611470355.421875
59.47,1611470355.4375
61.62,1611470355.453125
67.63,1611470355.46875
75.62,1611470355.484375
82.85,1611470355.5
86.92,1611470355.515625
86.75,1611470355.53125
82.88,1611470355.546875
77.04,1611470355.5625
71.24,1611470355.578125
66.86,1611470355.59375
64.22,1611470355.609375
62.68,1611470355.625
61.04,1611470355.640625
58.06,1611470355.65625
52.84,1611470355.671875
44.75,1611470355.6875
33.25,1611470355.703125
18.06,1611470355.71875
-0.11,1611470355.734375
-18.84,1611470355.75
-33.97,1611470355.765625
-41.05,1611470355.78125
-37.64,1611470355.796875
-25.49,1611470355.8125
-10.98,1611470355.828125
-3.02,1611470355.84375
-9.39,1611470355.859375
-33.03,1611470355.875
-70.57,1611470355.890625
-113.68,1611470355.90625
-152.61,1611470355.921875
-179.92,1611470355.9375
-192.49,1611470355.953125
-191.14,1611470355.96875
-178.7,1611470355.984375
-158.09,1611470356.0
-131.42,1611470356.015625
-100.44,1611470356.03125
-67.31,1611470356.046875
-35.0,1611470356.0625
-6.83,1611470356.078125
14.51,1611470356.09375
27.95,1611470356.109375
34.57,1611470356.125
37.11,1611470356.140625
38.81,1611470356.15625
42.17,1611470356.171875
48.07,1611470356.1875
55.62,1611470356.203125
62.69,1611470356.21875
66.94,1611470356.234375
66.86,1611470356.25
62.26,1611470356.265625
54.28,1611470356.28125
44.84,1611470356.296875
35.73,1611470356.3125
27.9,1611470356.328125
20.97,1611470356.34375
13.53,1611470356.359375
3.79,1611470356.375
-9.49,1611470356.390625
-26.28,1611470356.40625
-45.09,1611470356.421875
-63.41,1611470356.4375
-78.56,1611470356.453125
-88.55,1611470356.46875
-92.66,1611470356.484375
-91.44,1611470356.5
-86.31,1611470356.515625
-78.92,1611470356.53125
-70.67,1611470356.546875
-62.42,1611470356.5625
-54.59,1611470356.578125
-47.35,1611470356.59375
-40.74,1611470356.609375
-34.83,1611470356.625
-29.66,1611470356.640625
-25.22,1611470356.65625
-21.5,1611470356.671875
-18.51,1611470356.6875
-16.26,1611470356.703125
-14.76,1611470356.71875
-14.0,1611470356.734375
-13.92,1611470356.75
-14.39,1611470356.765625
-15.21,1611470356.78125
-16.15,1611470356.796875
-16.93,1611470356.8125
-17.27,1611470356.828125
-16.96,1611470356.84375
-15.98,1611470356.859375
-14.5,1611470356.875
-12.83,1611470356.890625
-11.33,1611470356.90625
-10.19,1611470356.921875
-9.43,1611470356.9375
-8.89,1611470356.953125
-8.43,1611470356.96875
-8.13,1611470356.984375
-8.36,1611470357.0
-9.69,1611470357.015625
-12.63,1611470357.03125
-17.32,1611470357.046875
-23.29,1611470357.0625
-29.57,1611470357.078125
-34.89,1611470357.09375
-38.18,1611470357.109375
-38.94,1611470357.125
-37.46,1611470357.140625
-34.59,1611470357.15625
-31.39,1611470357.171875
-28.64,1611470357.1875
-26.52,1611470357.203125
-24.77,1611470357.21875
-22.98,1611470357.234375
-21.06,1611470357.25
-19.39,1611470357.265625
-18.72,1611470357.28125
-19.62,1611470357.296875
-22.08,1611470357.3125
-25.37,1611470357.328125
-28.25,1611470357.34375
-29.6,1611470357.359375
-28.88,1611470357.375
-26.44,1611470357.390625
-23.19,1611470357.40625
-20.26,1611470357.421875
-18.48,1611470357.4375
-18.36,1611470357.453125
-20.26,1611470357.46875
-24.45,1611470357.484375
-31.13,1611470357.5
-40.03,1611470357.515625
-50.34,1611470357.53125
-60.93,1611470357.546875
-70.95,1611470357.5625
-80.49,1611470357.578125
-90.64,1611470357.59375
-102.73,1611470357.609375
-117.06,1611470357.625
-132.0,1611470357.640625
-143.92,1611470357.65625
-148.51,1611470357.671875
-142.66,1611470357.6875
-125.91,1611470357.703125
-100.78,1611470357.71875
-71.72,1611470357.734375
-43.29,1611470357.75
-18.52,1611470357.765625
1.72,1611470357.78125
18.29,1611470357.796875
32.69,1611470357.8125
45.96,1611470357.828125
58.21,1611470357.84375
68.81,1611470357.859375
77.03,1611470357.875
82.63,1611470357.890625
86.1,1611470357.90625
88.31,1611470357.921875
90.09,1611470357.9375
91.79,1611470357.953125
93.18,1611470357.96875
93.74,1611470357.984375
93.06,1611470358.0
91.14,1611470358.015625
88.43,1611470358.03125
85.5,1611470358.046875
82.86,1611470358.0625
80.65,1611470358.078125
78.75,1611470358.09375
76.85,1611470358.109375
74.67,1611470358.125
72.05,1611470358.140625
68.88,1611470358.15625
65.14,1611470358.171875
60.78,1611470358.1875
55.88,1611470358.203125
50.63,1611470358.21875
45.41,1611470358.234375
40.73,1611470358.25
37.15,1611470358.265625
35.06,1611470358.28125
34.5,1611470358.296875
35.19,1611470358.3125
36.55,1611470358.328125
37.96,1611470358.34375
38.96,1611470358.359375
39.35,1611470358.375
39.22,1611470358.390625
38.78,1611470358.40625
38.26,1611470358.421875
37.78,1611470358.4375
37.43,1611470358.453125
37.22,1611470358.46875
37.13,1611470358.484375
37.03,1611470358.5
36.7,1611470358.515625
35.88,1611470358.53125
34.37,1611470358.546875
32.11,1611470358.5625
29.19,1611470358.578125
25.71,1611470358.59375
21.65,1611470358.609375
16.84,1611470358.625
11.05,1611470358.640625
4.18,1611470358.65625
-3.58,1611470358.671875
-11.68,1611470358.6875
-19.42,1611470358.703125
-26.16,1611470358.71875
-31.61,1611470358.734375
-35.96,1611470358.75
-39.67,1611470358.765625
-43.26,1611470358.78125
-47.09,1611470358.796875
-51.23,1611470358.8125
-55.52,1611470358.828125
-59.66,1611470358.84375
-63.39,1611470358.859375
-66.37,1611470358.875
-68.29,1611470358.890625
-68.78,1611470358.90625
-67.53,1611470358.921875
-64.35,1611470358.9375
-59.26,1611470358.953125
-52.49,1611470358.96875
-44.36,1611470358.984375
-35.26,1611470359.0
-25.6,1611470359.015625
-15.93,1611470359.03125
-6.9,1611470359.046875
0.85,1611470359.0625
6.9,1611470359.078125
11.21,1611470359.09375
14.12,1611470359.109375
16.14,1611470359.125
17.61,1611470359.140625
18.57,1611470359.15625
18.7,1611470359.171875
17.71,1611470359.1875
15.51,1611470359.203125
12.4,1611470359.21875
8.92,1611470359.234375
5.67,1611470359.25
2.95,1611470359.265625
0.75,1611470359.28125
-1.25,1611470359.296875
-3.41,1611470359.3125
-5.97,1611470359.328125
-8.89,1611470359.34375
-11.96,1611470359.359375
-14.96,1611470359.375
-17.82,1611470359.390625
-20.73,1611470359.40625
-23.99,1611470359.421875
-27.82,1611470359.4375
-32.12,1611470359.453125
-36.42,1611470359.46875
-39.88,1611470359.484375
-41.62,1611470359.5
-40.99,1611470359.515625
-37.75,1611470359.53125
-32.19,1611470359.546875
-24.97,1611470359.5625
-16.92,1611470359.578125
-8.86,1611470359.59375
-1.33,1611470359.609375
5.42,1611470359.625
11.37,1611470359.640625
16.54,1611470359.65625
20.85,1611470359.671875
23.99,1611470359.6875
25.57,1611470359.703125
25.32,1611470359.71875
23.3,1611470359.734375
20.05,1611470359.75
16.37,1611470359.765625
13.07,1611470359.78125
10.66,1611470359.796875
9.15,1611470359.8125
8.09,1611470359.828125
6.79,1611470359.84375
4.61,1611470359.859375
1.27,1611470359.875
-3.08,1611470359.890625
-7.88,1611470359.90625
-12.4,1611470359.921875
-16.05,1611470359.9375
-18.73,1611470359.953125
-20.93,1611470359.96875
-23.68,1611470359.984375
-28.06,1611470360.0
-34.69,1611470360.015625
-43.23,1611470360.03125
-52.29,1611470360.046875
-59.79,1611470360.0625
-63.72,1611470360.078125
-62.88,1611470360.09375
-57.51,1611470360.109375
-49.23,1611470360.125
-40.57,1611470360.140625
-33.95,1611470360.15625
-30.64,1611470360.171875
-30.01,1611470360.1875
-29.53,1611470360.203125
-25.78,1611470360.21875
-15.88,1611470360.234375
1.14,1611470360.25
23.75,1611470360.265625
48.5,1611470360.28125
71.41,1611470360.296875
89.42,1611470360.3125
101.18,1611470360.328125
107.23,1611470360.34375
109.74,1611470360.359375
112.07,1611470360.375
118.1,1611470360.390625
131.04,1611470360.40625
151.77,1611470360.421875
177.49,1611470360.4375
201.7,1611470360.453125
215.99,1611470360.46875
213.36,1611470360.484375
191.48,1611470360.5
153.97,1611470360.515625
109.05,1611470360.53125
66.04,1611470360.546875
31.78,1611470360.5625
8.57,1611470360.578125
-5.33,1611470360.59375
-13.58,1611470360.609375
-19.39,1611470360.625
-24.32,1611470360.640625
-28.41,1611470360.65625
-31.2,1611470360.671875
-32.58,1611470360.6875
-32.9,1611470360.703125
-32.73,1611470360.71875
-32.32,1611470360.734375
-31.36,1611470360.75
-29.22,1611470360.765625
-25.59,1611470360.78125
-21.07,1611470360.796875
-17.16,1611470360.8125
-15.91,1611470360.828125
-19.02,1611470360.84375
-26.96,1611470360.859375
-38.55,1611470360.875
-51.25,1611470360.890625
-62.06,1611470360.90625
-68.63,1611470360.921875
-70.11,1611470360.9375
-67.28,1611470360.953125
-62.03,1611470360.96875
-56.47,1611470360.984375
-52.09,1611470361.0
-49.35,1611470361.015625
-47.85,1611470361.03125
-46.8,1611470361.046875
-45.52,1611470361.0625
-43.83,1611470361.078125
-41.99,1611470361.09375
-40.63,1611470361.109375
-40.37,1611470361.125
-41.71,1611470361.140625
-44.79,1611470361.15625
-49.42,1611470361.171875
-55.02,1611470361.1875
-60.69,1611470361.203125
-65.34,1611470361.21875
-67.95,1611470361.234375
-67.84,1611470361.25
-64.83,1611470361.265625
-59.31,1611470361.28125
-52.03,1611470361.296875
-43.85,1611470361.3125
-35.4,1611470361.328125
-26.92,1611470361.34375
-18.34,1611470361.359375
-9.47,1611470361.375
-0.37,1611470361.390625
8.61,1611470361.40625
16.72,1611470361.421875
23.16,1611470361.4375
27.38,1611470361.453125
29.29,1611470361.46875
29.4,1611470361.484375
28.52,1611470361.5
27.47,1611470361.515625
26.75,1611470361.53125
26.36,1611470361.546875
25.93,1611470361.5625
24.98,1611470361.578125
23.28,1611470361.59375
20.92,1611470361.609375
18.28,1611470361.625
15.66,1611470361.640625
13.14,1611470361.65625
10.46,1611470361.671875
7.23,1611470361.6875
3.26,1611470361.703125
-1.3,1611470361.71875
-6.07,1611470361.734375
-10.72,1611470361.75
-15.25,1611470361.765625
-19.96,1611470361.78125
-25.17,1611470361.796875
-30.75,1611470361.8125
-35.98,1611470361.828125
-39.7,1611470361.84375
-40.75,1611470361.859375
-38.58,1611470361.875
-33.4,1611470361.890625
-26.11,1611470361.90625
-17.8,1611470361.921875
-9.44,1611470361.9375
-1.64,1611470361.953125
5.26,1611470361.96875
10.98,1611470361.984375
15.29,1611470362.0
18.05,1611470362.015625
19.23,1611470362.03125
19.02,1611470362.046875
17.66,1611470362.0625
15.26,1611470362.078125
11.82,1611470362.09375
7.26,1611470362.109375
1.66,1611470362.125
-4.63,1611470362.140625
-11.02,1611470362.15625
-16.96,1611470362.171875
-22.24,1611470362.1875
-27.09,1611470362.203125
-32.11,1611470362.21875
-37.96,1611470362.234375
-45.07,1611470362.25
-53.48,1611470362.265625
-62.94,1611470362.28125
-73.1,1611470362.296875
-83.66,1611470362.3125
-94.26,1611470362.328125
-104.12,1611470362.34375
-112.15,1611470362.359375
-117.16,1611470362.375
-118.73,1611470362.390625
-117.5,1611470362.40625
-115.11,1611470362.421875
-113.14,1611470362.4375
-112.08,1611470362.453125
-110.79,1611470362.46875
-106.95,1611470362.484375
-98.42,1611470362.5
-84.49,1611470362.515625
-66.46,1611470362.53125
-46.98,1611470362.546875
-28.76,1611470362.5625
-13.29,1611470362.578125
-0.4,1611470362.59375
11.3,1611470362.609375
23.42,1611470362.625
36.84,1611470362.640625
51.39,1611470362.65625
66.01,1611470362.671875
79.28,1611470362.6875
90.01,1611470362.703125
97.57,1611470362.71875
102.08,1611470362.734375
104.15,1611470362.75
104.44,1611470362.765625
103.26,1611470362.78125
100.46,1611470362.796875
95.62,1611470362.8125
88.62,1611470362.828125
79.96,1611470362.84375
70.83,1611470362.859375
62.61,1611470362.875
56.32,1611470362.890625
52.2,1611470362.90625
49.78,1611470362.921875
48.31,1611470362.9375
47.21,1611470362.953125
46.28,1611470362.96875
45.5,1611470362.984375
44.68,1611470363.0
43.35,1611470363.015625
40.85,1611470363.03125
36.87,1611470363.046875
31.74,1611470363.0625
26.59,1611470363.078125
22.95,1611470363.09375
22.18,1611470363.109375
24.9,1611470363.125
30.91,1611470363.140625
39.31,1611470363.15625
48.93,1611470363.171875
58.69,1611470363.1875
67.74,1611470363.203125
75.58,1611470363.21875
81.95,1611470363.234375
86.8,1611470363.25
90.27,1611470363.265625
92.64,1611470363.28125
94.24,1611470363.296875
95.38,1611470363.3125
96.22,1611470363.328125
96.86,1611470363.34375
97.37,1611470363.359375
97.86,1611470363.375
98.48,1611470363.390625
99.28,1611470363.40625
100.1,1611470363.421875
100.61,1611470363.4375
100.37,1611470363.453125
99.02,1611470363.46875
96.36,1611470363.484375
92.42,1611470363.5
87.47,1611470363.515625
81.98,1611470363.53125
76.51,1611470363.546875
71.58,1611470363.5625
67.39,1611470363.578125
63.6,1611470363.59375
59.26,1611470363.609375
53.02,1611470363.625
43.52,1611470363.640625
30.01,1611470363.65625
12.67,1611470363.671875
-7.28,1611470363.6875
-27.89,1611470363.703125
-46.92,1611470363.71875
-62.37,1611470363.734375
-72.89,1611470363.75
-77.93,1611470363.765625
-77.77,1611470363.78125
-73.34,1611470363.796875
-65.92,1611470363.8125
-56.88,1611470363.828125
-47.37,1611470363.84375
-38.26,1611470363.859375
-30.15,1611470363.875
-23.52,1611470363.890625
-18.66,1611470363.90625
-15.61,1611470363.921875
-13.99,1611470363.9375
-13.09,1611470363.953125
-12.08,1611470363.96875
-10.4,1611470363.984375
-8.05,1611470364.0
-5.53,1611470364.015625
-3.62,1611470364.03125
-2.89,1611470364.046875
-3.48,1611470364.0625
-5.11,1611470364.078125
-7.29,1611470364.09375
-9.65,1611470364.109375
-12.0,1611470364.125
-14.41,1611470364.140625
-17.0,1611470364.15625
-19.85,1611470364.171875
-22.99,1611470364.1875
-26.44,1611470364.203125
-30.18,1611470364.21875
-34.24,1611470364.234375
-38.53,1611470364.25
-42.98,1611470364.265625
-47.51,1611470364.28125
-52.09,1611470364.296875
-56.75,1611470364.3125
-61.27,1611470364.328125
-65.15,1611470364.34375
-67.5,1611470364.359375
-67.27,1611470364.375
-63.65,1611470364.390625
-56.45,1611470364.40625
-46.27,1611470364.421875
-34.39,1611470364.4375
-22.31,1611470364.453125
-11.29,1611470364.46875
-2.02,1611470364.484375
5.37,1611470364.5
11.19,1611470364.515625
15.76,1611470364.53125
19.27,1611470364.546875
21.72,1611470364.5625
23.04,1611470364.578125
23.22,1611470364.59375
22.46,1611470364.609375
21.1,1611470364.625
19.51,1611470364.640625
18.0,1611470364.65625
16.63,1611470364.671875
15.33,1611470364.6875
13.94,1611470364.703125
12.36,1611470364.71875
10.64,1611470364.734375
8.91,1611470364.75
7.34,1611470364.765625
5.95,1611470364.78125
4.63,1611470364.796875
3.07,1611470364.8125
0.92,1611470364.828125
-2.07,1611470364.84375
-6.02,1611470364.859375
-10.88,1611470364.875
-16.53,1611470364.890625
-22.84,1611470364.90625
-29.64,1611470364.921875
-36.64,1611470364.9375
-43.3,1611470364.953125
-48.75,1611470364.96875
-52.01,1611470364.984375
-52.17,1611470365.0
-48.76,1611470365.015625
-41.94,1611470365.03125
-32.51,1611470365.046875
-21.65,1611470365.0625
-10.59,1611470365.078125
-0.3,1611470365.09375
8.66,1611470365.109375
16.08,1611470365.125
21.9,1611470365.140625
26.0,1611470365.15625
28.24,1611470365.171875
28.51,1611470365.1875
26.91,1611470365.203125
23.86,1611470365.21875
20.02,1611470365.234375
16.09,1611470365.25
12.53,1611470365.265625
9.36,1611470365.28125
6.22,1611470365.296875
2.56,1611470365.3125
-2.08,1611470365.328125
-7.77,1611470365.34375
-14.19,1611470365.359375
-20.7,1611470365.375
-26.71,1611470365.390625
-31.94,1611470365.40625
-36.67,1611470365.421875
-41.72,1611470365.4375
-48.05,1611470365.453125
-56.38,1611470365.46875
-66.76,1611470365.484375
-78.44,1611470365.5
-90.2,1611470365.515625
-100.87,1611470365.53125
-109.81,1611470365.546875
-117.02,1611470365.5625
-122.94,1611470365.578125
-128.03,1611470365.59375
-132.52,1611470365.609375
-136.41,1611470365.625
-139.53,1611470365.640625
-141.45,1611470365.65625
-141.04,1611470365.671875
-136.34,1611470365.6875
-124.86,1611470365.703125
-104.71,1611470365.71875
-75.89,1611470365.734375
-40.88,1611470365.75
-4.0,1611470365.765625
30.3,1611470365.78125
59.37,1611470365.796875
83.27,1611470365.8125
104.11,1611470365.828125
124.35,1611470365.84375
145.08,1611470365.859375
165.48,1611470365.875
183.54,1611470365.890625
197.37,1611470365.90625
206.26,1611470365.921875
210.65,1611470365.9375
211.49,1611470365.953125
209.35,1611470365.96875
204.29,1611470365.984375
196.24,1611470366.0
185.63,1611470366.015625
173.65,1611470366.03125
161.84,1611470366.046875
151.5,1611470366.0625
143.01,1611470366.078125
135.78,1611470366.09375
128.57,1611470366.109375
120.1,1611470366.125
109.38,1611470366.140625
95.79,1611470366.15625
78.97,1611470366.171875
58.83,1611470366.1875
35.74,1611470366.203125
10.7,1611470366.21875
-14.51,1611470366.234375
-37.67,1611470366.25
-56.56,1611470366.265625
-69.65,1611470366.28125
-76.32,1611470366.296875
-76.99,1611470366.3125
-72.81,1611470366.328125
-65.37,1611470366.34375
-56.38,1611470366.359375
-47.36,1611470366.375
-39.39,1611470366.390625
-32.97,1611470366.40625
-28.0,1611470366.421875
-24.08,1611470366.4375
-20.86,1611470366.453125
-18.4,1611470366.46875
-17.1,1611470366.484375
-17.54,1611470366.5
-19.9,1611470366.515625
-23.78,1611470366.53125
-28.21,1611470366.546875
-31.95,1611470366.5625
-34.0,1611470366.578125
-33.88,1611470366.59375
-31.76,1611470366.609375
-28.32,1611470366.625
-24.5,1611470366.640625
-21.24,1611470366.65625
-19.25,1611470366.671875
-18.86,1611470366.6875
-19.93,1611470366.703125
-22.02,1611470366.71875
-24.56,1611470366.734375
-27.15,1611470366.75
-29.74,1611470366.765625
-32.57,1611470366.78125
-36.01,1611470366.796875
-40.29,1611470366.8125
-45.32,1611470366.828125
-50.64,1611470366.84375
-55.56,1611470366.859375
-59.29,1611470366.875
-61.18,1611470366.890625
-60.71,1611470366.90625
-57.58,1611470366.921875
-51.75,1611470366.9375
-43.42,1611470366.953125
-33.1,1611470366.96875
-21.59,1611470366.984375
-9.96,1611470367.0
0.62,1611470367.015625
9.13,1611470367.03125
14.91,1611470367.046875
17.86,1611470367.0625
18.41,1611470367.078125
17.32,1611470367.09375
15.51,1611470367.109375
13.66,1611470367.125
12.15,1611470367.140625
11.0,1611470367.15625
10.02,1611470367.171875
8.96,1611470367.1875
7.61,1611470367.203125
5.89,1611470367.21875
3.85,1611470367.234375
1.56,1611470367.25
-0.86,1611470367.265625
-3.28,1611470367.28125
-5.65,1611470367.296875
-7.94,1611470367.3125
-10.24,1611470367.328125
-12.71,1611470367.34375
-15.57,1611470367.359375
-19.07,1611470367.375
-23.36,1611470367.390625
-28.53,1611470367.40625
-34.43,1611470367.421875
-40.7,1611470367.4375
-46.67,1611470367.453125
-51.42,1611470367.46875
-53.97,1611470367.484375
-53.46,1611470367.5
-49.47,1611470367.515625
-42.16,1611470367.53125
-32.34,1611470367.546875
-21.17,1611470367.5625
-9.92,1611470367.578125
0.48,1611470367.59375
9.59,1611470367.609375
17.38,1611470367.625
24.0,1611470367.640625
29.5,1611470367.65625
33.65,1611470367.671875
36.08,1611470367.6875
36.56,1611470367.703125
35.22,1611470367.71875
32.65,1611470367.734375
29.66,1611470367.75
27.01,1611470367.765625
25.05,1611470367.78125
23.68,1611470367.796875
22.48,1611470367.8125
20.95,1611470367.828125
18.79,1611470367.84375
15.94,1611470367.859375
12.62,1611470367.875
9.11,1611470367.890625
5.7,1611470367.90625
2.57,1611470367.921875
-0.24,1611470367.9375
-2.88,1611470367.953125
-5.66,1611470367.96875
-9.02,1611470367.984375
-13.43,1611470368.0
-19.17,1611470368.015625
-26.06,1611470368.03125
-33.35,1611470368.046875
-39.67,1611470368.0625
-43.41,1611470368.078125
-43.12,1611470368.09375
-38.18,1611470368.109375
-29.1,1611470368.125
-17.66,1611470368.140625
-6.5,1611470368.15625
1.74,1611470368.171875
5.31,1611470368.1875
3.95,1611470368.203125
-0.91,1611470368.21875
-6.79,1611470368.234375
-11.05,1611470368.25
-11.81,1611470368.265625
-8.54,1611470368.28125
-1.95,1611470368.296875
6.51,1611470368.3125
15.24,1611470368.328125
23.01,1611470368.34375
29.02,1611470368.359375
32.81,1611470368.375
34.1,1611470368.390625
32.8,1611470368.40625
29.18,1611470368.421875
24.0,1611470368.4375
18.4,1611470368.453125
13.48,1611470368.46875
9.9,1611470368.484375
7.57,1611470368.5
5.8,1611470368.515625
3.65,1611470368.53125
0.47,1611470368.546875
-3.88,1611470368.5625
-9.12,1611470368.578125
-14.75,1611470368.59375
-20.48,1611470368.609375
-26.23,1611470368.625
-31.99,1611470368.640625
-37.53,1611470368.65625
-42.27,1611470368.671875
-45.31,1611470368.6875
-45.71,1611470368.703125
-42.91,1611470368.71875
-36.96,1611470368.734375
-28.52,1611470368.75
-18.64,1611470368.765625
-8.4,1611470368.78125
1.45,1611470368.796875
10.53,1611470368.8125
18.81,1611470368.828125
26.28,1611470368.84375
32.75,1611470368.859375
37.83,1611470368.875
41.11,1611470368.890625
42.34,1611470368.90625
41.72,1611470368.921875
39.83,1611470368.9375
37.39,1611470368.953125
34.97,1611470368.96875
32.79,1611470368.984375
30.68,1611470369.0
28.33,1611470369.015625
25.54,1611470369.03125
22.32,1611470369.046875
18.95,1611470369.0625
15.75,1611470369.078125
12.91,1611470369.09375
10.45,1611470369.109375
8.19,1611470369.125
5.85,1611470369.140625
3.13,1611470369.15625
-0.21,1611470369.171875
-4.38,1611470369.1875
-9.55,1611470369.203125
-15.84,1611470369.21875
-23.18,1611470369.234375
-31.23,1611470369.25
-39.34,1611470369.265625
-46.49,1611470369.28125
-51.55,1611470369.296875
-53.45,1611470369.3125
-51.58,1611470369.328125
-45.98,1611470369.34375
-37.4,1611470369.359375
-27.05,1611470369.375
-16.29,1611470369.390625
-6.14,1611470369.40625
2.81,1611470369.421875
10.5,1611470369.4375
17.08,1611470369.453125
22.66,1611470369.46875
27.17,1611470369.484375
30.39,1611470369.5
32.1,1611470369.515625
32.23,1611470369.53125
30.93,1611470369.546875
28.62,1611470369.5625
25.83,1611470369.578125
23.15,1611470369.59375
21.02,1611470369.609375
19.67,1611470369.625
18.99,1611470369.640625
18.55,1611470369.65625
17.81,1611470369.671875
16.31,1611470369.6875
13.89,1611470369.703125
10.72,1611470369.71875
7.18,1611470369.734375
3.62,1611470369.75
0.21,1611470369.765625
-3.15,1611470369.78125
-6.73,1611470369.796875
-10.88,1611470369.8125
-15.88,1611470369.828125
-21.86,1611470369.84375
-28.72,1611470369.859375
-36.04,1611470369.875
-42.99,1611470369.890625
-48.45,1611470369.90625
-51.23,1611470369.921875
-50.41,1611470369.9375
-45.71,1611470369.953125
-37.6,1611470369.96875
-27.16,1611470369.984375
-15.8,1611470370.0
-4.84,1611470370.015625
4.72,1611470370.03125
12.32,1611470370.046875
17.77,1611470370.0625
21.1,1611470370.078125
22.51,1611470370.09375
22.28,1611470370.109375
20.75,1611470370.125
18.27,1611470370.140625
15.13,1611470370.15625
11.55,1611470370.171875
7.65,1611470370.1875
3.48,1611470370.203125
-0.96,1611470370.21875
-5.67,1611470370.234375
-10.64,1611470370.25
-15.82,1611470370.265625
-21.18,1611470370.28125
-26.72,1611470370.296875
-32.53,1611470370.3125
-38.79,1611470370.328125
-45.73,1611470370.34375
-53.62,1611470370.359375
-62.62,1611470370.375
-72.72,1611470370.390625
-83.68,1611470370.40625
-94.88,1611470370.421875
-105.34,1611470370.4375
-113.91,1611470370.453125
-119.79,1611470370.46875
-122.9,1611470370.484375
-124.06,1611470370.5
-124.44,1611470370.515625
-124.72,1611470370.53125
-124.38,1611470370.546875
-121.55,1611470370.5625
-113.78,1611470370.578125
-99.29,1611470370.59375
-77.96,1611470370.609375
-51.48,1611470370.625
-22.73,1611470370.640625
5.42,1611470370.65625
31.23,1611470370.671875
54.42,1611470370.6875
75.79,1611470370.703125
96.53,1611470370.71875
117.72,1611470370.734375
140.26,1611470370.75
165.1,1611470370.765625
193.21,1611470370.78125
225.0,1611470370.796875
259.53,1611470370.8125
293.89,1611470370.828125
323.56,1611470370.84375
343.67,1611470370.859375
350.77,1611470370.875
344.15,1611470370.890625
325.9,1611470370.90625
299.8,1611470370.921875
269.46,1611470370.9375
236.98,1611470370.953125
202.63,1611470370.96875
165.77,1611470370.984375
126.07,1611470371.0
84.38,1611470371.015625
42.75,1611470371.03125
3.6,1611470371.046875
-31.05,1611470371.0625
-59.95,1611470371.078125
-82.72,1611470371.09375
-99.47,1611470371.109375
-110.59,1611470371.125
-116.64,1611470371.140625
-118.44,1611470371.15625
-116.92,1611470371.171875
-113.11,1611470371.1875
-107.83,1611470371.203125
-101.66,1611470371.21875
-94.86,1611470371.234375
-87.46,1611470371.25
-79.42,1611470371.265625
-70.75,1611470371.28125
-61.62,1611470371.296875
-52.39,1611470371.3125
-43.63,1611470371.328125
-35.94,1611470371.34375
-29.87,1611470371.359375
-25.71,1611470371.375
-23.41,1611470371.390625
-22.52,1611470371.40625
-22.37,1611470371.421875
-22.27,1611470371.4375
-21.81,1611470371.453125
-21.02,1611470371.46875
-20.29,1611470371.484375
-20.18,1611470371.5
-21.02,1611470371.515625
-22.78,1611470371.53125
-25.04,1611470371.546875
-27.2,1611470371.5625
-28.83,1611470371.578125
-29.86,1611470371.59375
-30.65,1611470371.609375
-31.8,1611470371.625
-33.92,1611470371.640625
-37.37,1611470371.65625
-42.16,1611470371.671875
-47.83,1611470371.6875
-53.52,1611470371.703125
-58.11,1611470371.71875
-60.39,1611470371.734375
-59.38,1611470371.75
-54.65,1611470371.765625
-46.46,1611470371.78125
-35.74,1611470371.796875
-23.88,1611470371.8125
-12.26,1611470371.828125
-1.92,1611470371.84375
6.63,1611470371.859375
13.38,1611470371.875
18.59,1611470371.890625
22.46,1611470371.90625
25.07,1611470371.921875
26.41,1611470371.9375
26.51,1611470371.953125
25.59,1611470371.96875
24.04,1611470371.984375
22.29,1611470372.0
20.62,1611470372.015625
19.09,1611470372.03125
17.54,1611470372.046875
15.8,1611470372.0625
13.76,1611470372.078125
11.45,1611470372.09375
9.01,1611470372.109375
6.53,1611470372.125
4.02,1611470372.140625
1.41,1611470372.15625
-1.44,1611470372.171875
-4.69,1611470372.1875
-8.45,1611470372.203125
-12.83,1611470372.21875
-17.91,1611470372.234375
-23.67,1611470372.25
-30.02,1611470372.265625
-36.68,1611470372.28125
-43.16,1611470372.296875
-48.76,1611470372.3125
-52.64,1611470372.328125
-53.97,1611470372.34375
-52.17,1611470372.359375
-47.13,1611470372.375
-39.29,1611470372.390625
-29.6,1611470372.40625
-19.24,1611470372.421875
-9.28,1611470372.4375
-0.41,1611470372.453125
7.15,1611470372.46875
13.49,1611470372.484375
18.72,1611470372.5
22.78,1611470372.515625
25.43,1611470372.53125
26.42,1611470372.546875
25.76,1611470372.5625
23.85,1611470372.578125
21.37,1611470372.59375
19.01,1611470372.609375
17.13,1611470372.625
15.65,1611470372.640625
14.19,1611470372.65625
12.28,1611470372.671875
9.71,1611470372.6875
6.61,1611470372.703125
3.31,1611470372.71875
0.19,1611470372.734375
-2.58,1611470372.75
-5.07,1611470372.765625
-7.54,1611470372.78125
-10.28,1611470372.796875
-13.54,1611470372.8125
-17.48,1611470372.828125
-22.24,1611470372.84375
-27.89,1611470372.859375
-34.34,1611470372.875
-41.24,1611470372.890625
-47.83,1611470372.90625
-53.08,1611470372.921875
-55.89,1611470372.9375
-55.4,1611470372.953125
-51.36,1611470372.96875
-44.09,1611470372.984375
-34.49,1611470373.0
-23.61,1611470373.015625
-12.48,1611470373.03125
-1.76,1611470373.046875
8.17,1611470373.0625
17.14,1611470373.078125
24.97,1611470373.09375
31.33,1611470373.109375
35.82,1611470373.125
38.06,1611470373.140625
38.01,1611470373.15625
36.08,1611470373.171875
33.08,1611470373.1875
29.94,1611470373.203125
27.38,1611470373.21875
25.64,1611470373.234375
24.42,1611470373.25
23.17,1611470373.265625
21.36,1611470373.28125
18.79,1611470373.296875
15.6,1611470373.3125
12.09,1611470373.328125
8.51,1611470373.34375
4.94,1611470373.359375
1.35,1611470373.375
-2.29,1611470373.390625
-5.95,1611470373.40625
-9.6,1611470373.421875
-13.45,1611470373.4375
-17.87,1611470373.453125
-23.3,1611470373.46875
-29.83,1611470373.484375
-36.9,1611470373.5
-43.18,1611470373.515625
-46.96,1611470373.53125
-46.76,1611470373.546875
-41.95,1611470373.5625
-33.14,1611470373.578125
-21.96,1611470373.59375
-10.54,1611470373.609375
-0.67,1611470373.625
6.75,1611470373.640625
11.88,1611470373.65625
15.59,1611470373.671875
18.79,1611470373.6875
21.8,1611470373.703125
24.13,1611470373.71875
24.71,1611470373.734375
22.62,1611470373.75
17.78,1611470373.765625
11.18,1611470373.78125
4.62,1611470373.796875
-0.12,1611470373.8125
-2.12,1611470373.828125
-1.66,1611470373.84375
0.01,1611470373.859375
1.55,1611470373.875
2.32,1611470373.890625
2.58,1611470373.90625
3.1,1611470373.921875
4.39,1611470373.9375
6.18,1611470373.953125
7.53,1611470373.96875
7.64,1611470373.984375
6.64,1611470374.0
5.81,1611470374.015625
6.93,1611470374.03125
11.14,1611470374.046875
18.13,1611470374.0625
26.63,1611470374.078125
35.94,1611470374.09375
47.44,1611470374.109375
64.58,1611470374.125
90.84,1611470374.140625
126.7,1611470374.15625
167.48,1611470374.171875
204.06,1611470374.1875
226.29,1611470374.203125
227.59,1611470374.21875
208.0,1611470374.234375
173.99,1611470374.25
135.22,1611470374.265625
100.13,1611470374.28125
72.87,1611470374.296875
53.02,1611470374.3125
37.69,1611470374.328125
24.27,1611470374.34375
12.06,1611470374.359375
1.99,1611470374.375
-4.81,1611470374.390625
-8.53,1611470374.40625
-11.08,1611470374.421875
-15.22,1611470374.4375
-23.23,1611470374.453125
-35.73,1611470374.46875
-51.39,1611470374.484375
-67.54,1611470374.5
-81.41,1611470374.515625
-91.25,1611470374.53125
-96.89,1611470374.546875
-99.52,1611470374.5625
-100.92,1611470374.578125
-102.56,1611470374.59375
-104.96,1611470374.609375
-107.66,1611470374.625
-109.63,1611470374.640625
-109.95,1611470374.65625
-108.27,1611470374.671875
-105.04,1611470374.6875
-101.38,1611470374.703125
-98.59,1611470374.71875
-97.65,1611470374.734375
-98.66,1611470374.75
-100.79,1611470374.765625
-102.43,1611470374.78125
-101.78,1611470374.796875
-97.55,1611470374.8125
-89.4,1611470374.828125
-78.01,1611470374.84375
-64.7,1611470374.859375
-50.9,1611470374.875
-37.65,1611470374.890625
-25.39,1611470374.90625
-14.17,1611470374.921875
-3.82,1611470374.9375
5.7,1611470374.953125
14.29,1611470374.96875
21.75,1611470374.984375
27.89,1611470375.0
32.52,1611470375.015625
35.53,1611470375.03125
36.88,1611470375.046875
36.62,1611470375.0625
35.03,1611470375.078125
32.57,1611470375.09375
29.79,1611470375.109375
27.17,1611470375.125
24.91,1611470375.140625
22.94,1611470375.15625
21.04,1611470375.171875
18.96,1611470375.1875
16.6,1611470375.203125
13.99,1611470375.21875
11.19,1611470375.234375
8.23,1611470375.25
5.0,1611470375.265625
1.31,1611470375.28125
-3.06,1611470375.296875
-8.29,1611470375.3125
-14.43,1611470375.328125
-21.31,1611470375.34375
-28.49,1611470375.359375
-35.19,1611470375.375
-40.39,1611470375.390625
-42.97,1611470375.40625
-41.99,1611470375.421875
-37.06,1611470375.4375
-28.5,1611470375.453125
-17.32,1611470375.46875
-4.98,1611470375.484375
7.06,1611470375.5
17.71,1611470375.515625
26.38,1611470375.53125
32.94,1611470375.546875
37.51,1611470375.5625
40.22,1611470375.578125
41.14,1611470375.59375
40.41,1611470375.609375
38.36,1611470375.625
35.58,1611470375.640625
32.76,1611470375.65625
30.48,1611470375.671875
28.95,1611470375.6875
27.97,1611470375.703125
27.06,1611470375.71875
25.66,1611470375.734375
23.48,1611470375.75
20.6,1611470375.765625
17.34,1611470375.78125
14.11,1611470375.796875
11.17,1611470375.8125
8.52,1611470375.828125
5.89,1611470375.84375
2.9,1611470375.859375
-0.8,1611470375.875
-5.48,1611470375.890625
-11.22,1611470375.90625
-18.0,1611470375.921875
-25.57,1611470375.9375
-33.47,1611470375.953125
-40.85,1611470375.96875
-46.64,1611470375.984375
-49.65,1611470376.0
-49.09,1611470376.015625
-44.82,1611470376.03125
-37.6,1611470376.046875
-28.89,1611470376.0625
-20.26,1611470376.078125
-12.94,1611470376.09375
-7.34,1611470376.109375
-3.11,1611470376.125
0.44,1611470376.140625
3.82,1611470376.15625
6.94,1611470376.171875
9.13,1611470376.1875
9.58,1611470376.203125
7.87,1611470376.21875
4.22,1611470376.234375
-0.57,1611470376.25
-5.52,1611470376.265625
-9.81,1611470376.28125
-12.8,1611470376.296875
-13.86,1611470376.3125
-12.24,1611470376.328125
-7.4,1611470376.34375
0.3,1611470376.359375
9.11,1611470376.375
16.08,1611470376.390625
18.23,1611470376.40625
13.99,1611470376.421875
4.2,1611470376.4375
-8.14,1611470376.453125
-19.24,1611470376.46875
-26.26,1611470376.484375
-28.47,1611470376.5
-27.07,1611470376.515625
-24.19,1611470376.53125
-21.5,1611470376.546875
-19.62,1611470376.5625
-18.22,1611470376.578125
-16.74,1611470376.59375
-14.94,1611470376.609375
-12.9,1611470376.625
-10.75,1611470376.640625
-8.21,1611470376.65625
-4.72,1611470376.671875
0.29,1611470376.6875
6.9,1611470376.703125
14.55,1611470376.71875
22.27,1611470376.734375
28.99,1611470376.75
34.03,1611470376.765625
37.22,1611470376.78125
38.88,1611470376.796875
39.56,1611470376.8125
39.8,1611470376.828125
39.94,1611470376.84375
40.07,1611470376.859375
39.97,1611470376.875
39.34,1611470376.890625
37.86,1611470376.90625
35.41,1611470376.921875
32.12,1611470376.9375
28.38,1611470376.953125
24.67,1611470376.96875
21.38,1611470376.984375
18.6,1611470377.0
16.18,1611470377.015625
13.75,1611470377.03125
11.03,1611470377.046875
7.99,1611470377.0625
4.8,1611470377.078125
1.75,1611470377.09375
-1.03,1611470377.109375
-3.68,1611470377.125
-6.67,1611470377.140625
-10.55,1611470377.15625
-15.8,1611470377.171875
-22.55,1611470377.1875
-30.53,1611470377.203125
-39.01,1611470377.21875
-46.93,1611470377.234375
-53.05,1611470377.25
-56.15,1611470377.265625
-55.38,1611470377.28125
-50.45,1611470377.296875
-41.84,1611470377.3125
-30.68,1611470377.328125
-18.52,1611470377.34375
-6.77,1611470377.359375
3.59,1611470377.375
12.22,1611470377.390625
19.29,1611470377.40625
25.12,1611470377.421875
29.98,1611470377.4375
33.83,1611470377.453125
36.47,1611470377.46875
37.7,1611470377.484375
37.46,1611470377.5
35.94,1611470377.515625
33.49,1611470377.53125
30.51,1611470377.546875
27.39,1611470377.5625
24.42,1611470377.578125
21.87,1611470377.59375
19.9,1611470377.609375
18.5,1611470377.625
17.44,1611470377.640625
16.28,1611470377.65625
14.51,1611470377.671875
11.74,1611470377.6875
7.9,1611470377.703125
3.22,1611470377.71875
-1.88,1611470377.734375
-6.94,1611470377.75
-11.72,1611470377.765625
-16.24,1611470377.78125
-20.77,1611470377.796875
-25.67,1611470377.8125
-31.32,1611470377.828125
-37.93,1611470377.84375
-45.35,1611470377.859375
-52.9,1611470377.875
-59.4,1611470377.890625
-63.38,1611470377.90625
-63.5,1611470377.921875
-59.14,1611470377.9375
-50.64,1611470377.953125
-39.3,1611470377.96875
-26.86,1611470377.984375
-14.89,1611470378.0
-4.42,1611470378.015625
4.23,1611470378.03125
11.11,1611470378.046875
16.37,1611470378.0625
20.15,1611470378.078125
22.58,1611470378.09375
23.95,1611470378.109375
24.78,1611470378.125
25.62,1611470378.140625
26.8,1611470378.15625
28.24,1611470378.171875
29.5,1611470378.1875
30.03,1611470378.203125
29.46,1611470378.21875
27.83,1611470378.234375
25.44,1611470378.25
22.73,1611470378.265625
19.97,1611470378.28125
17.16,1611470378.296875
14.07,1611470378.3125
10.38,1611470378.328125
5.91,1611470378.34375
0.74,1611470378.359375
-4.79,1611470378.375
-10.18,1611470378.390625
-15.07,1611470378.40625
-19.46,1611470378.421875
-23.83,1611470378.4375
-29.04,1611470378.453125
-35.86,1611470378.46875
-44.49,1611470378.484375
-54.25,1611470378.5
-63.55,1611470378.515625
-70.44,1611470378.53125
-73.19,1611470378.546875
-70.97,1611470378.5625
-63.94,1611470378.578125
-53.18,1611470378.59375
-40.31,1611470378.609375
-27.29,1611470378.625
-16.24,1611470378.640625
-9.34,1611470378.65625
-8.3,1611470378.671875
-13.73,1611470378.6875
-24.61,1611470378.703125
-38.21,1611470378.71875
-50.93,1611470378.734375
-59.51,1611470378.75
-62.16,1611470378.765625
-58.85,1611470378.78125
-50.89,1611470378.796875
-39.89,1611470378.8125
-26.96,1611470378.828125
-12.68,1611470378.84375
2.48,1611470378.859375
17.6,1611470378.875
31.27,1611470378.890625
42.0,1611470378.90625
49.02,1611470378.921875
52.53,1611470378.9375
53.55,1611470378.953125
53.24,1611470378.96875
52.23,1611470378.984375
50.42,1611470379.0
47.26,1611470379.015625
42.34,1611470379.03125
35.74,1611470379.046875
28.22,1611470379.0625
20.88,1611470379.078125
14.89,1611470379.09375
11.13,1611470379.109375
10.08,1611470379.125
11.91,1611470379.140625
16.58,1611470379.15625
24.05,1611470379.171875
34.18,1611470379.1875
46.67,1611470379.203125
60.8,1611470379.21875
75.3,1611470379.234375
88.5,1611470379.25
98.63,1611470379.265625
104.31,1611470379.28125
105.04,1611470379.296875
101.65,1611470379.3125
96.43,1611470379.328125
92.95,1611470379.34375
95.31,1611470379.359375
106.72,1611470379.375
128.0,1611470379.390625
156.46,1611470379.40625
186.1,1611470379.421875
209.29,1611470379.4375
219.47,1611470379.453125
213.59,1611470379.46875
193.12,1611470379.484375
163.15,1611470379.5
130.16,1611470379.515625
99.41,1611470379.53125
73.49,1611470379.546875
52.35,1611470379.5625
34.41,1611470379.578125
17.86,1611470379.59375
1.36,1611470379.609375
-15.9,1611470379.625
-34.5,1611470379.640625
-54.89,1611470379.65625
-77.08,1611470379.671875
-100.29,1611470379.6875
-122.74,1611470379.703125
-142.0,1611470379.71875
-155.69,1611470379.734375
-162.3,1611470379.75
-161.66,1611470379.765625
-155.05,1611470379.78125
-144.7,1611470379.796875
-133.13,1611470379.8125
-122.39,1611470379.828125
-113.65,1611470379.84375
-106.93,1611470379.859375
-101.44,1611470379.875
-95.98,1611470379.890625
-89.41,1611470379.90625
-81.19,1611470379.921875
-71.54,1611470379.9375
-61.36,1611470379.953125
-51.76,1611470379.96875
-43.67,1611470379.984375
-37.39,1611470380.0
-32.62,1611470380.015625
-28.62,1611470380.03125
-24.64,1611470380.046875
-20.32,1611470380.0625
-15.81,1611470380.078125
-11.7,1611470380.09375
-8.75,1611470380.109375
-7.46,1611470380.125
-7.88,1611470380.140625
-9.56,1611470380.15625
-11.84,1611470380.171875
-14.07,1611470380.1875
-15.93,1611470380.203125
-17.44,1611470380.21875
-18.86,1611470380.234375
-20.49,1611470380.25
-22.57,1611470380.265625
-25.19,1611470380.28125
-28.36,1611470380.296875
-32.02,1611470380.3125
-35.92,1611470380.328125
-39.69,1611470380.34375
-42.71,1611470380.359375
-44.34,1611470380.375
-44.02,1611470380.390625
-41.48,1611470380.40625
-36.75,1611470380.421875
-30.14,1611470380.4375
-22.07,1611470380.453125
-13.05,1611470380.46875
-3.63,1611470380.484375
5.62,1611470380.5
14.21,1611470380.515625
21.8,1611470380.53125
28.28,1611470380.546875
33.76,1611470380.5625
38.42,1611470380.578125
42.31,1611470380.59375
45.28,1611470380.609375
47.01,1611470380.625
47.23,1611470380.640625
45.86,1611470380.65625
43.13,1611470380.671875
39.52,1611470380.6875
35.62,1611470380.703125
31.95,1611470380.71875
28.83,1611470380.734375
26.38,1611470380.75
24.55,1611470380.765625
23.08,1611470380.78125
21.68,1611470380.796875
19.97,1611470380.8125
17.66,1611470380.828125
14.52,1611470380.84375
10.52,1611470380.859375
5.8,1611470380.875
0.61,1611470380.890625
-4.79,1611470380.90625
-10.32,1611470380.921875
-16.13,1611470380.9375
-22.46,1611470380.953125
-29.43,1611470380.96875
-36.77,1611470380.984375
-43.65,1611470381.0
-48.88,1611470381.015625
-51.18,1611470381.03125
-49.74,1611470381.046875
-44.43,1611470381.0625
-35.88,1611470381.078125
-25.28,1611470381.09375
-13.95,1611470381.109375
-2.97,1611470381.125
6.96,1611470381.140625
15.59,1611470381.15625
22.91,1611470381.171875
29.01,1611470381.1875
33.96,1611470381.203125
37.69,1611470381.21875
40.07,1611470381.234375
40.92,1611470381.25
40.23,1611470381.265625
38.13,1611470381.28125
35.01,1611470381.296875
31.35,1611470381.3125
27.71,1611470381.328125
24.47,1611470381.34375
21.85,1611470381.359375
19.82,1611470381.375
18.16,1611470381.390625
16.56,1611470381.40625
14.65,1611470381.421875
12.12,1611470381.4375
8.84,1611470381.453125
4.86,1611470381.46875
0.46,1611470381.484375
-3.97,1611470381.5
-8.03,1611470381.515625
-11.57,1611470381.53125
-14.81,1611470381.546875
-18.32,1611470381.5625
-22.84,1611470381.578125
-28.91,1611470381.59375
-36.45,1611470381.609375
-44.59,1611470381.625
-51.67,1611470381.640625
-55.64,1611470381.65625
-54.59,1611470381.671875
-47.49,1611470381.6875
-34.65,1611470381.703125
-17.86,1611470381.71875
-0.05,1611470381.734375
15.62,1611470381.75
26.86,1611470381.765625
33.17,1611470381.78125
36.02,1611470381.796875
38.15,1611470381.8125
42.15,1611470381.828125
49.06,1611470381.84375
57.86,1611470381.859375
66.08,1611470381.875
71.2,1611470381.890625
72.14,1611470381.90625
69.78,1611470381.921875
66.49,1611470381.9375
65.15,1611470381.953125
68.15,1611470381.96875
76.91,1611470381.984375
91.65,1611470382.0
111.22,1611470382.015625
132.95,1611470382.03125
152.78,1611470382.046875
165.95,1611470382.0625
168.44,1611470382.078125
158.35,1611470382.09375
136.77,1611470382.109375
107.28,1611470382.125
74.6,1611470382.140625
42.89,1611470382.15625
14.65,1611470382.171875
-9.27,1611470382.1875
-29.1,1611470382.203125
-45.36,1611470382.21875
-58.46,1611470382.234375
-68.71,1611470382.25
-76.4,1611470382.265625
-81.85,1611470382.28125
-85.26,1611470382.296875
-86.65,1611470382.3125
-85.98,1611470382.328125
-83.35,1611470382.34375
-79.23,1611470382.359375
-74.45,1611470382.375
-69.95,1611470382.390625
-66.5,1611470382.40625
-64.43,1611470382.421875
-63.61,1611470382.4375
-63.51,1611470382.453125
-63.41,1611470382.46875
-62.63,1611470382.484375
-60.63,1611470382.5
-57.1,1611470382.515625
-52.05,1611470382.53125
-45.74,1611470382.546875
-38.69,1611470382.5625
-31.55,1611470382.578125
-24.99,1611470382.59375
-19.51,1611470382.609375
-15.32,1611470382.625
-12.37,1611470382.640625
-10.36,1611470382.65625
-8.92,1611470382.671875
-7.8,1611470382.6875
-6.93,1611470382.703125
-6.46,1611470382.71875
-6.68,1611470382.734375
-7.87,1611470382.75
-10.17,1611470382.765625
-13.47,1611470382.78125
-17.56,1611470382.796875
-22.15,1611470382.8125
-27.15,1611470382.828125
-32.64,1611470382.84375
-38.82,1611470382.859375
-45.77,1611470382.875
-53.17,1611470382.890625
-60.18,1611470382.90625
-65.52,1611470382.921875
-67.81,1611470382.9375
-66.0,1611470382.953125
-59.82,1611470382.96875
-49.87,1611470382.984375
-37.52,1611470383.0
-24.45,1611470383.015625
-12.13,1611470383.03125
-1.51,1611470383.046875
7.23,1611470383.0625
14.34,1611470383.078125
20.22,1611470383.09375
25.08,1611470383.109375
28.81,1611470383.125
31.19,1611470383.140625
32.04,1611470383.15625
31.51,1611470383.171875
30.04,1611470383.1875
28.19,1611470383.203125
26.46,1611470383.21875
25.11,1611470383.234375
24.12,1611470383.25
23.33,1611470383.265625
22.5,1611470383.28125
21.42,1611470383.296875
19.93,1611470383.3125
17.95,1611470383.328125
15.48,1611470383.34375
12.55,1611470383.359375
9.22,1611470383.375
5.55,1611470383.390625
1.58,1611470383.40625
-2.72,1611470383.421875
-7.37,1611470383.4375
-12.38,1611470383.453125
-17.76,1611470383.46875
-23.55,1611470383.484375
-29.79,1611470383.5
-36.42,1611470383.515625
-43.14,1611470383.53125
-49.26,1611470383.546875
-53.79,1611470383.5625
-55.54,1611470383.578125
-53.63,1611470383.59375
-47.8,1611470383.609375
-38.64,1611470383.625
-27.41,1611470383.640625
-15.7,1611470383.65625
-4.87,1611470383.671875
4.3,1611470383.6875
11.7,1611470383.703125
17.66,1611470383.71875
22.56,1611470383.734375
26.6,1611470383.75
29.67,1611470383.765625
31.57,1611470383.78125
32.23,1611470383.796875
31.84,1611470383.8125
30.66,1611470383.828125
28.86,1611470383.84375
26.39,1611470383.859375
23.03,1611470383.875
18.68,1611470383.890625
13.55,1611470383.90625
8.27,1611470383.921875
3.58,1611470383.9375
-0.03,1611470383.953125
-2.65,1611470383.96875
-4.99,1611470383.984375
-8.13,1611470384.0
-12.96,1611470384.015625
-19.87,1611470384.03125
-28.43,1611470384.046875
-37.66,1611470384.0625
-46.46,1611470384.078125
-54.04,1611470384.09375
-60.37,1611470384.109375
-66.23,1611470384.125
-72.82,1611470384.140625
-81.26,1611470384.15625
-91.95,1611470384.171875
-104.3,1611470384.1875
-116.74,1611470384.203125
-127.22,1611470384.21875
-133.91,1611470384.234375
-135.8,1611470384.25
-133.14,1611470384.265625
-127.32,1611470384.28125
-120.48,1611470384.296875
-114.79,1611470384.3125
-111.88,1611470384.328125
-112.27,1611470384.34375
-115.18,1611470384.359375
-118.52,1611470384.375
-119.21,1611470384.390625
-113.87,1611470384.40625
-99.86,1611470384.421875
-76.04,1611470384.4375
-43.23,1611470384.453125
-3.7,1611470384.46875
39.83,1611470384.484375
85.39,1611470384.5
132.32,1611470384.515625
180.96,1611470384.53125
231.53,1611470384.546875
282.86,1611470384.5625
331.8,1611470384.578125
373.7,1611470384.59375
403.76,1611470384.609375
418.48,1611470384.625
416.63,1611470384.640625
399.15,1611470384.65625
368.43,1611470384.671875
327.44,1611470384.6875
279.17,1611470384.703125
226.58,1611470384.71875
172.64,1611470384.734375
120.43,1611470384.75
72.8,1611470384.765625
31.88,1611470384.78125
-1.34,1611470384.796875
-27.14,1611470384.8125
-46.69,1611470384.828125
-61.53,1611470384.84375
-72.92,1611470384.859375
-81.65,1611470384.875
-88.0,1611470384.890625
-91.94,1611470384.90625
-93.47,1611470384.921875
-92.63,1611470384.9375
-89.58,1611470384.953125
-84.52,1611470384.96875
-77.78,1611470384.984375
-69.87,1611470385.0
-61.56,1611470385.015625
-53.82,1611470385.03125
-47.65,1611470385.046875
-43.72,1611470385.0625
-42.04,1611470385.078125
-41.91,1611470385.09375
-42.07,1611470385.109375
-41.2,1611470385.125
-38.54,1611470385.140625
-34.2,1611470385.15625
-29.15,1611470385.171875
-24.75,1611470385.1875
-22.07,1611470385.203125
-21.43,1611470385.21875
-22.34,1611470385.234375
-23.81,1611470385.25
-25.01,1611470385.265625
-25.71,1611470385.28125
-26.35,1611470385.296875
-27.68,1611470385.3125
-30.33,1611470385.328125
-34.43,1611470385.34375
-39.62,1611470385.359375
-45.28,1611470385.375
-50.8,1611470385.390625
-55.66,1611470385.40625
-59.34,1611470385.421875
-61.17,1611470385.4375
-60.32,1611470385.453125
-56.05,1611470385.46875
-48.1,1611470385.484375
-36.94,1611470385.5
-23.8,1611470385.515625
-10.31,1611470385.53125
2.01,1611470385.546875
12.22,1611470385.5625
20.05,1611470385.578125
25.75,1611470385.59375
29.72,1611470385.609375
32.2,1611470385.625
33.19,1611470385.640625
32.65,1611470385.65625
30.7,1611470385.671875
27.78,1611470385.6875
24.66,1611470385.703125
22.03,1611470385.71875
20.24,1611470385.734375
19.1,1611470385.75
17.95,1611470385.765625
16.01,1611470385.78125
12.78,1611470385.796875
8.36,1611470385.8125
3.39,1611470385.828125
-1.23,1611470385.84375
-4.78,1611470385.859375
-7.1,1611470385.875
-8.65,1611470385.890625
-10.32,1611470385.90625
-13.08,1611470385.921875
-17.61,1611470385.9375
-24.03,1611470385.953125
-31.91,1611470385.96875
-40.38,1611470385.984375
-48.33,1611470386.0
-54.55,1611470386.015625
-57.99,1611470386.03125
-57.88,1611470386.046875
-53.92,1611470386.0625
-46.44,1611470386.078125
-36.34,1611470386.09375
-24.9,1611470386.109375
-13.42,1611470386.125
-2.89,1611470386.140625
6.17,1611470386.15625
13.7,1611470386.171875
19.87,1611470386.1875
24.9,1611470386.203125
28.82,1611470386.21875
31.54,1611470386.234375
32.88,1611470386.25
32.72,1611470386.265625
31.17,1611470386.28125
28.51,1611470386.296875
25.22,1611470386.3125
21.73,1611470386.328125
18.36,1611470386.34375
15.2,1611470386.359375
12.19,1611470386.375
9.24,1611470386.390625
6.31,1611470386.40625
3.45,1611470386.421875
0.68,1611470386.4375
-2.18,1611470386.453125
-5.5,1611470386.46875
-9.81,1611470386.484375
-15.51,1611470386.5
-22.76,1611470386.515625
-31.27,1611470386.53125
-40.51,1611470386.546875
-49.73,1611470386.5625
-58.2,1611470386.578125
-65.28,1611470386.59375
-70.69,1611470386.609375
-74.63,1611470386.625
-77.74,1611470386.640625
-80.8,1611470386.65625
-84.28,1611470386.671875
-87.96,1611470386.6875
-90.78,1611470386.703125
-91.3,1611470386.71875
-88.16,1611470386.734375
-80.67,1611470386.75
-68.83,1611470386.765625
-53.11,1611470386.78125
-34.19,1611470386.796875
-12.78,1611470386.8125
10.13,1611470386.828125
33.07,1611470386.84375
54.08,1611470386.859375
71.18,1611470386.875
83.09,1611470386.890625
89.79,1611470386.90625
92.53,1611470386.921875
93.24,1611470386.9375
93.76,1611470386.953125
95.11,1611470386.96875
97.31,1611470386.984375
99.64,1611470387.0
101.14,1611470387.015625
101.09,1611470387.03125
99.18,1611470387.046875
95.51,1611470387.0625
90.35,1611470387.078125
83.97,1611470387.09375
76.53,1611470387.109375
68.17,1611470387.125
58.97,1611470387.140625
49.13,1611470387.15625
38.87,1611470387.171875
28.33,1611470387.1875
17.55,1611470387.203125
6.43,1611470387.21875
-5.05,1611470387.234375
-16.61,1611470387.25
-27.42,1611470387.265625
-36.16,1611470387.28125
-41.38,1611470387.296875
-41.98,1611470387.3125
-37.76,1611470387.328125
-29.52,1611470387.34375
-18.84,1611470387.359375
-7.49,1611470387.375
3.18,1611470387.390625
12.49,1611470387.40625
