PPG GREEN,time
1964099.0,1611470310.278
1962963.0,1611470310.319
1962577.0,1611470310.358
1962576.0,1611470310.398
1962638.0,1611470310.44
1962702.0,1611470310.478
1963597.0,1611470310.518
1963875.0,1611470310.559
1964426.0,1611470310.598
1964771.0,1611470310.639
1966450.0,1611470310.679
1968841.0,1611470310.718
1971203.0,1611470310.759
1973142.0,1611470310.8
1975045.0,1611470310.839
1976348.0,1611470310.879
1976897.0,1611470310.92
1978486.0,1611470310.959
1979296.0,1611470310.999
1980255.0,1611470311.041
1981718.0,1611470311.079
1982969.0,1611470311.119
1984421.0,1611470311.16
1986071.0,1611470311.199
1987992.0,1611470311.24
1991357.0,1611470311.28
1994766.0,1611470311.319
2000914.0,1611470311.359
2009116.0,1611470311.4
2016351.0,1611470311.44
2025783.0,1611470311.48
2035209.0,1611470311.521
2045009.0,1611470311.56
2052996.0,1611470311.6
2059463.0,1611470311.642
2062859.0,1611470311.68
2064119.0,1611470311.72
2066061.0,1611470311.761
2067565.0,1611470311.8
2069844.0,1611470311.842
2071523.0,1611470311.881
2072911.0,1611470311.92
2076606.0,1611470311.96
2079561.0,1611470312.001
2081427.0,1611470312.041
2083386.0,1611470312.081
2085281.0,1611470312.122
2087609.0,1611470312.161
2089821.0,1611470312.201
2092404.0,1611470312.243
2095377.0,1611470312.281
2099098.0,1611470312.321
2101593.0,1611470312.362
2104281.0,1611470312.401
2106155.0,1611470312.442
2108433.0,1611470312.482
2110570.0,1611470312.521
2113123.0,1611470312.561
2114846.0,1611470312.602
2116308.0,1611470312.642
2117876.0,1611470312.681
2119678.0,1611470312.723
2120366.0,1611470312.762
2122411.0,1611470312.801
2124346.0,1611470312.84
2126135.0,1611470312.879
2128221.0,1611470312.918
2130476.0,1611470312.957
2132564.0,1611470312.996
2135733.0,1611470313.035
2138717.0,1611470313.074
2141783.0,1611470313.113
2144953.0,1611470313.152
2147362.0,1611470313.191
2149465.0,1611470313.23
2150397.0,1611470313.269
2152128.0,1611470313.308
2153887.0,1611470313.347
2156090.0,1611470313.386
2158007.0,1611470313.425
2160001.0,1611470313.464
2161858.0,1611470313.504
2164194.0,1611470313.544
2165818.0,1611470313.584
2167807.0,1611470313.624
2169453.0,1611470313.664
2171512.0,1611470313.704
2174050.0,1611470313.744
2175216.0,1611470313.784
2175434.0,1611470313.824
2176377.0,1611470313.864
2177280.0,1611470313.904
2178344.0,1611470313.944
2179812.0,1611470313.984
2181192.0,1611470314.024
2182794.0,1611470314.064
2184561.0,1611470314.104
2186642.0,1611470314.144
2189215.0,1611470314.184
2193475.0,1611470314.224
2197047.0,1611470314.264
2200491.0,1611470314.304
2202666.0,1611470314.344
2203685.0,1611470314.384
2205179.0,1611470314.424
2207465.0,1611470314.464
2209501.0,1611470314.504
2211696.0,1611470314.544
2213643.0,1611470314.584
2215287.0,1611470314.624
2217070.0,1611470314.664
2219802.0,1611470314.704
2221632.0,1611470314.744
2223513.0,1611470314.784
2225357.0,1611470314.824
2227854.0,1611470314.864
2229572.0,1611470314.904
2231045.0,1611470314.944
2232259.0,1611470314.984
2232668.0,1611470315.024
2232720.0,1611470315.064
2233472.0,1611470315.104
2233643.0,1611470315.144
2234464.0,1611470315.184
2235467.0,1611470315.224
2236218.0,1611470315.264
2236828.0,1611470315.304
2236787.0,1611470315.344
2239260.0,1611470315.384
2242462.0,1611470315.424
2244389.0,1611470315.464
2245010.0,1611470315.504
2245107.0,1611470315.544
2243195.0,1611470315.584
2241997.0,1611470315.624
2240692.0,1611470315.664
2241033.0,1611470315.704
2241370.0,1611470315.744
2241891.0,1611470315.784
2242350.0,1611470315.824
2241018.0,1611470315.864
2236313.0,1611470315.904
2234822.0,1611470315.944
2235820.0,1611470315.984
2237207.0,1611470316.024
2237303.0,1611470316.064
2235746.0,1611470316.104
2233925.0,1611470316.144
2233334.0,1611470316.184
2238002.0,1611470316.224
2237409.0,1611470316.264
2237682.0,1611470316.304
2240329.0,1611470316.344
2244270.0,1611470316.384
2248527.0,1611470316.424
2251790.0,1611470316.464
2254225.0,1611470316.504
2256496.0,1611470316.544
2259079.0,1611470316.584
2260985.0,1611470316.624
2263228.0,1611470316.664
2264540.0,1611470316.704
2264549.0,1611470316.744
2264444.0,1611470316.784
2264173.0,1611470316.824
2264622.0,1611470316.864
2264617.0,1611470316.904
2265484.0,1611470316.944
2267258.0,1611470316.984
2269389.0,1611470317.024
2271189.0,1611470317.064
2272790.0,1611470317.104
2274693.0,1611470317.144
2276617.0,1611470317.184
2278570.0,1611470317.224
2279969.0,1611470317.264
2280479.0,1611470317.304
2280769.0,1611470317.344
2281317.0,1611470317.384
2282651.0,1611470317.464
2281689.0,1611470317.424
2285677.0,1611470317.544
2284350.0,1611470317.504
2286924.0,1611470317.584
2288031.0,1611470317.624
2289548.0,1611470317.664
2290667.0,1611470317.704
2293599.0,1611470317.784
2292135.0,1611470317.744
2293624.0,1611470317.864
2293851.0,1611470317.824
2292986.0,1611470317.904
2293081.0,1611470317.944
2292917.0,1611470317.984
2293364.0,1611470318.024
2294082.0,1611470318.064
2294496.0,1611470318.104
2294824.0,1611470318.144
2295292.0,1611470318.184
2295841.0,1611470318.224
2297766.0,1611470318.264
2291652.0,1611470318.304
2285721.0,1611470318.344
2282404.0,1611470318.384
2279175.0,1611470318.424
2276738.0,1611470318.464
2277315.0,1611470318.504
2284308.0,1611470318.544
2282058.0,1611470318.584
2278365.0,1611470318.624
2279100.0,1611470318.664
2280783.0,1611470318.704
2284515.0,1611470318.744
2287494.0,1611470318.784
2290366.0,1611470318.824
2292795.0,1611470318.864
2294592.0,1611470318.904
2295069.0,1611470318.944
2294748.0,1611470318.984
2294128.0,1611470319.024
2294340.0,1611470319.064
2294797.0,1611470319.104
2295570.0,1611470319.144
2296130.0,1611470319.184
2296976.0,1611470319.224
2297398.0,1611470319.264
2297847.0,1611470319.304
2298081.0,1611470319.344
2298450.0,1611470319.384
2298809.0,1611470319.424
2298574.0,1611470319.464
2297237.0,1611470319.504
2295070.0,1611470319.544
2294257.0,1611470319.584
2292882.0,1611470319.624
2292262.0,1611470319.664
2291780.0,1611470319.704
2291680.0,1611470319.744
2292270.0,1611470319.784
2292232.0,1611470319.824
2292729.0,1611470319.864
2293193.0,1611470319.904
2293606.0,1611470319.944
2294025.0,1611470319.984
2294614.0,1611470320.024
2293735.0,1611470320.064
2291984.0,1611470320.104
2290102.0,1611470320.144
2288456.0,1611470320.184
2287206.0,1611470320.224
2286247.0,1611470320.264
2285793.0,1611470320.304
2285602.0,1611470320.344
2285472.0,1611470320.384
2285199.0,1611470320.424
2285253.0,1611470320.464
2285553.0,1611470320.504
2285886.0,1611470320.544
2286314.0,1611470320.584
2287139.0,1611470320.624
2285883.0,1611470320.664
2283843.0,1611470320.704
2281616.0,1611470320.744
2279045.0,1611470320.784
2271306.0,1611470320.824
2266647.0,1611470320.864
2264567.0,1611470320.904
2264130.0,1611470320.944
2269373.0,1611470320.984
2276038.0,1611470321.024
2273261.0,1611470321.064
2271932.0,1611470321.104
2273072.0,1611470321.144
2275714.0,1611470321.184
2279757.0,1611470321.224
2281893.0,1611470321.264
2282455.0,1611470321.304
2281404.0,1611470321.344
2280771.0,1611470321.384
2280837.0,1611470321.424
2280041.0,1611470321.464
2280061.0,1611470321.504
2280523.0,1611470321.544
2281100.0,1611470321.584
2281869.0,1611470321.624
2282448.0,1611470321.664
2283599.0,1611470321.704
2284260.0,1611470321.744
2285493.0,1611470321.784
2286456.0,1611470321.824
2287373.0,1611470321.864
2288261.0,1611470321.904
2287153.0,1611470321.944
2285500.0,1611470321.984
2284241.0,1611470322.024
2283601.0,1611470322.064
2282794.0,1611470322.104
2282815.0,1611470322.144
2282961.0,1611470322.184
2283323.0,1611470322.224
2283844.0,1611470322.264
2283762.0,1611470322.304
2284124.0,1611470322.344
2284720.0,1611470322.384
2285541.0,1611470322.424
2286037.0,1611470322.464
2286417.0,1611470322.504
2285334.0,1611470322.544
2282998.0,1611470322.584
2280906.0,1611470322.624
2279552.0,1611470322.664
2278752.0,1611470322.704
2278000.0,1611470322.744
2277934.0,1611470322.784
2277844.0,1611470322.824
2277908.0,1611470322.864
2277902.0,1611470322.904
2277668.0,1611470322.944
2277961.0,1611470322.984
2277603.0,1611470323.024
2277959.0,1611470323.064
2277851.0,1611470323.104
2277232.0,1611470323.144
2274672.0,1611470323.184
2271577.0,1611470323.224
2268493.0,1611470323.264
2265569.0,1611470323.304
2263258.0,1611470323.344
2261164.0,1611470323.384
2259711.0,1611470323.424
2258261.0,1611470323.464
2257373.0,1611470323.504
2257090.0,1611470323.544
2257306.0,1611470323.584
2258047.0,1611470323.624
2259658.0,1611470323.664
2262864.0,1611470323.704
2267055.0,1611470323.744
2267129.0,1611470323.784
2267165.0,1611470323.824
2264995.0,1611470323.864
2263803.0,1611470323.904
2264084.0,1611470323.944
2265582.0,1611470323.984
2267201.0,1611470324.024
2269285.0,1611470324.064
2271296.0,1611470324.104
2273340.0,1611470324.144
2274786.0,1611470324.184
2275523.0,1611470324.224
2276302.0,1611470324.264
2276932.0,1611470324.304
2277178.0,1611470324.344
2278279.0,1611470324.384
2278501.0,1611470324.424
2277307.0,1611470324.464
2274733.0,1611470324.504
2272192.0,1611470324.544
2270254.0,1611470324.584
2268487.0,1611470324.624
2267257.0,1611470324.664
2266968.0,1611470324.704
2266843.0,1611470324.744
2266775.0,1611470324.787
2266488.0,1611470324.829
2266473.0,1611470324.867
2266778.0,1611470324.907
2267168.0,1611470324.948
2267668.0,1611470324.987
2268316.0,1611470325.028
2268813.0,1611470325.068
2267678.0,1611470325.107
2265155.0,1611470325.147
2262855.0,1611470325.188
2259229.0,1611470325.266
2260793.0,1611470325.229
2258042.0,1611470325.308
2257427.0,1611470325.347
2256867.0,1611470325.387
2256377.0,1611470325.429
2256187.0,1611470325.468
2256102.0,1611470325.508
2256031.0,1611470325.545
2256176.0,1611470325.584
2256346.0,1611470325.625
2256268.0,1611470325.666
2255287.0,1611470325.706
2252933.0,1611470325.746
2250261.0,1611470325.788
2248442.0,1611470325.827
2246937.0,1611470325.867
2246428.0,1611470325.908
2245843.0,1611470325.948
2245960.0,1611470325.988
2245725.0,1611470326.03
2245729.0,1611470326.069
2245748.0,1611470326.107
2245064.0,1611470326.148
2243904.0,1611470326.187
2241659.0,1611470326.228
2236120.0,1611470326.269
2235167.0,1611470326.308
2232344.0,1611470326.349
2233502.0,1611470326.39
2232573.0,1611470326.43
2231714.0,1611470326.467
2234123.0,1611470326.508
2240050.0,1611470326.548
2246288.0,1611470326.588
2252559.0,1611470326.63
2255752.0,1611470326.668
2258430.0,1611470326.709
2261385.0,1611470326.75
2264178.0,1611470326.789
2266704.0,1611470326.828
2268666.0,1611470326.869
2269266.0,1611470326.908
2268087.0,1611470326.948
2266282.0,1611470326.989
2264666.0,1611470327.029
2263074.0,1611470327.069
2262160.0,1611470327.108
2261809.0,1611470327.148
2261592.0,1611470327.188
2261063.0,1611470327.23
2261312.0,1611470327.268
2261403.0,1611470327.309
2261730.0,1611470327.35
2261876.0,1611470327.389
2262934.0,1611470327.43
2263036.0,1611470327.469
2262450.0,1611470327.508
2260124.0,1611470327.548
2256824.0,1611470327.589
2254552.0,1611470327.629
2252971.0,1611470327.669
2251549.0,1611470327.71
2250712.0,1611470327.749
2250581.0,1611470327.79
2249789.0,1611470327.83
2249633.0,1611470327.868
2249573.0,1611470327.908
2249809.0,1611470327.95
2250226.0,1611470327.989
2250812.0,1611470328.03
2251117.0,1611470328.073
2250337.0,1611470328.106
2247534.0,1611470328.146
2244415.0,1611470328.187
2241824.0,1611470328.228
2240086.0,1611470328.268
2238582.0,1611470328.309
2237653.0,1611470328.348
2237463.0,1611470328.389
2237454.0,1611470328.431
2237268.0,1611470328.469
2237158.0,1611470328.509
2235572.0,1611470328.551
2235306.0,1611470328.59
2234138.0,1611470328.631
2230824.0,1611470328.669
2223780.0,1611470328.709
2214579.0,1611470328.749
2207202.0,1611470328.79
2201325.0,1611470328.83
2197747.0,1611470328.87
2195421.0,1611470328.911
2195942.0,1611470328.95
2197701.0,1611470328.99
2199231.0,1611470329.03
2200622.0,1611470329.069
2201802.0,1611470329.109
2202913.0,1611470329.151
2205266.0,1611470329.19
2207491.0,1611470329.231
2208175.0,1611470329.271
2207059.0,1611470329.311
2205986.0,1611470329.349
2204810.0,1611470329.39
2204530.0,1611470329.43
2205077.0,1611470329.47
2206786.0,1611470329.511
2207942.0,1611470329.55
2209244.0,1611470329.59
2210670.0,1611470329.632
2212438.0,1611470329.671
2213734.0,1611470329.709
2215356.0,1611470329.75
2217286.0,1611470329.789
2217773.0,1611470329.83
2216381.0,1611470329.871
2213571.0,1611470329.91
2211004.0,1611470329.951
2208229.0,1611470329.992
2205843.0,1611470330.032
2204287.0,1611470330.069
2203330.0,1611470330.111
2202623.0,1611470330.15
2201777.0,1611470330.19
2201027.0,1611470330.232
2200878.0,1611470330.27
2200666.0,1611470330.311
2200477.0,1611470330.352
2200086.0,1611470330.389
2198415.0,1611470330.43
2194716.0,1611470330.471
2190357.0,1611470330.51
2187129.0,1611470330.551
2184384.0,1611470330.592
2182845.0,1611470330.632
2182266.0,1611470330.667
2182677.0,1611470330.708
2182518.0,1611470330.747
2182596.0,1611470330.789
2182870.0,1611470330.831
2183094.0,1611470330.869
2183306.0,1611470330.91
2184158.0,1611470330.951
2184077.0,1611470330.99
2181979.0,1611470331.031
2178502.0,1611470331.072
2175528.0,1611470331.111
2173159.0,1611470331.152
2171483.0,1611470331.193
2170639.0,1611470331.23
2170785.0,1611470331.27
2170611.0,1611470331.311
2170802.0,1611470331.351
2170683.0,1611470331.391
2171511.0,1611470331.433
2171876.0,1611470331.471
2172608.0,1611470331.512
2173031.0,1611470331.553
2169304.0,1611470331.59
2162830.0,1611470331.631
2157419.0,1611470331.672
2153077.0,1611470331.711
2148872.0,1611470331.751
2146747.0,1611470331.792
2145443.0,1611470331.832
2144278.0,1611470331.872
2143944.0,1611470331.913
2144516.0,1611470331.95
2146087.0,1611470331.991
2147497.0,1611470332.032
2148259.0,1611470332.071
2149127.0,1611470332.111
2146845.0,1611470332.153
2144628.0,1611470332.192
2141685.0,1611470332.233
2140178.0,1611470332.271
2140374.0,1611470332.311
2144390.0,1611470332.351
2144977.0,1611470332.392
2147948.0,1611470332.432
2148953.0,1611470332.472
2151373.0,1611470332.513
2157219.0,1611470332.552
2164027.0,1611470332.593
2169330.0,1611470332.632
2173363.0,1611470332.671
2175312.0,1611470332.711
2175502.0,1611470332.752
2175122.0,1611470332.792
2174781.0,1611470332.833
2174104.0,1611470332.873
2174257.0,1611470332.912
2174851.0,1611470332.953
2175502.0,1611470332.992
2176215.0,1611470333.032
2176886.0,1611470333.072
2177455.0,1611470333.113
2178573.0,1611470333.152
2179747.0,1611470333.193
2181123.0,1611470333.231
2181519.0,1611470333.27
2179616.0,1611470333.311
2176774.0,1611470333.352
2173949.0,1611470333.391
2172002.0,1611470333.432
2170578.0,1611470333.473
2170053.0,1611470333.512
2170189.0,1611470333.552
2170770.0,1611470333.594
2170658.0,1611470333.633
2171036.0,1611470333.673
2171631.0,1611470333.712
2172270.0,1611470333.752
2173243.0,1611470333.792
2174274.0,1611470333.834
2173420.0,1611470333.872
2170706.0,1611470333.913
2167954.0,1611470333.954
2165808.0,1611470333.993
2164196.0,1611470334.034
2163847.0,1611470334.073
2163880.0,1611470334.112
2163891.0,1611470334.152
2163743.0,1611470334.193
2164133.0,1611470334.233
2164351.0,1611470334.273
2165337.0,1611470334.314
2166171.0,1611470334.353
2167149.0,1611470334.392
2166548.0,1611470334.434
2163954.0,1611470334.472
2160646.0,1611470334.512
2158069.0,1611470334.554
2156380.0,1611470334.593
2155394.0,1611470334.634
2155118.0,1611470334.675
2155000.0,1611470334.714
2155034.0,1611470334.752
2154717.0,1611470334.793
2155077.0,1611470334.833
2155515.0,1611470334.873
2156361.0,1611470334.914
2157505.0,1611470334.953
2158136.0,1611470334.993
2156751.0,1611470335.035
2152950.0,1611470335.074
2148065.0,1611470335.112
2142834.0,1611470335.153
2136987.0,1611470335.193
2132956.0,1611470335.234
2129918.0,1611470335.274
2126537.0,1611470335.313
2123800.0,1611470335.354
2121258.0,1611470335.395
2120040.0,1611470335.435
2118799.0,1611470335.472
2117850.0,1611470335.514
2117264.0,1611470335.553
2116694.0,1611470335.593
2115389.0,1611470335.635
2111994.0,1611470335.673
2108013.0,1611470335.714
2106077.0,1611470335.754
2111205.0,1611470335.793
2114740.0,1611470335.834
2113693.0,1611470335.874
2117420.0,1611470335.914
2121552.0,1611470335.953
2124630.0,1611470335.994
2127833.0,1611470336.034
2131651.0,1611470336.074
2135648.0,1611470336.115
2139527.0,1611470336.154
2143184.0,1611470336.194
2146689.0,1611470336.236
2150138.0,1611470336.273
2152675.0,1611470336.313
2153012.0,1611470336.354
2151083.0,1611470336.393
2148667.0,1611470336.434
2147223.0,1611470336.475
2146405.0,1611470336.514
2146399.0,1611470336.555
2147284.0,1611470336.596
2148286.0,1611470336.634
2149509.0,1611470336.673
2150780.0,1611470336.714
2151901.0,1611470336.754
2153488.0,1611470336.787
2154856.0,1611470336.829
2156485.0,1611470336.867
2159549.0,1611470336.948
2158181.0,1611470336.907
2160964.0,1611470336.987
2159066.0,1611470337.068
2161043.0,1611470337.028
2156602.0,1611470337.107
2152529.0,1611470337.189
2154167.0,1611470337.148
2151202.0,1611470337.268
2151644.0,1611470337.228
2151255.0,1611470337.309
2151528.0,1611470337.348
2151838.0,1611470337.388
2152574.0,1611470337.43
2153406.0,1611470337.469
2153896.0,1611470337.509
2154507.0,1611470337.549
2153870.0,1611470337.588
2154082.0,1611470337.629
2153650.0,1611470337.669
2149642.0,1611470337.708
2141837.0,1611470337.749
2133203.0,1611470337.79
2126141.0,1611470337.83
2120663.0,1611470337.87
2115585.0,1611470337.948
2117154.0,1611470337.909
2116449.0,1611470337.988
2117246.0,1611470338.03
2118969.0,1611470338.069
2122018.0,1611470338.109
2124398.0,1611470338.151
2127356.0,1611470338.19
2129802.0,1611470338.229
2132622.0,1611470338.269
2135141.0,1611470338.308
2136658.0,1611470338.346
2135260.0,1611470338.388
2126421.0,1611470338.428
2116507.0,1611470338.468
2107955.0,1611470338.509
2100716.0,1611470338.548
2095451.0,1611470338.589
2091550.0,1611470338.631
2088233.0,1611470338.669
2085223.0,1611470338.709
2084939.0,1611470338.751
2092295.0,1611470338.79
2096695.0,1611470338.831
2101787.0,1611470338.869
2110065.0,1611470338.908
2120165.0,1611470338.949
2127228.0,1611470338.99
2129814.0,1611470339.03
2131705.0,1611470339.07
2133470.0,1611470339.111
2135612.0,1611470339.15
2137814.0,1611470339.189
2140051.0,1611470339.23
2141776.0,1611470339.269
2143783.0,1611470339.309
2145240.0,1611470339.351
2146972.0,1611470339.39
2148251.0,1611470339.431
2150036.0,1611470339.471
2151665.0,1611470339.51
2153102.0,1611470339.549
2154358.0,1611470339.59
2153487.0,1611470339.63
2150855.0,1611470339.67
2147705.0,1611470339.711
2145743.0,1611470339.75
2144375.0,1611470339.79
2143076.0,1611470339.836
2143131.0,1611470339.869
2143589.0,1611470339.909
2143802.0,1611470339.95
2144117.0,1611470339.99
2144694.0,1611470340.031
2145876.0,1611470340.071
2146761.0,1611470340.111
2148114.0,1611470340.151
2149355.0,1611470340.19
2150423.0,1611470340.23
2149659.0,1611470340.27
2147111.0,1611470340.311
2144418.0,1611470340.35
2142261.0,1611470340.39
2140912.0,1611470340.432
2140521.0,1611470340.471
2140424.0,1611470340.511
2140756.0,1611470340.55
2141157.0,1611470340.59
2141870.0,1611470340.631
2142600.0,1611470340.671
2143536.0,1611470340.71
2144091.0,1611470340.751
2145577.0,1611470340.792
2146638.0,1611470340.832
2147498.0,1611470340.874
2146428.0,1611470340.909
2141972.0,1611470340.948
2136729.0,1611470340.989
2131068.0,1611470341.031
2127800.0,1611470341.07
2126927.0,1611470341.11
2126799.0,1611470341.151
2126638.0,1611470341.191
2126937.0,1611470341.232
2125557.0,1611470341.272
2121347.0,1611470341.352
2123831.0,1611470341.311
2118898.0,1611470341.391
2116856.0,1611470341.431
2115754.0,1611470341.47
2114039.0,1611470341.512
2111204.0,1611470341.551
2110788.0,1611470341.591
2115047.0,1611470341.633
2119730.0,1611470341.671
2124293.0,1611470341.712
2128035.0,1611470341.751
2131027.0,1611470341.79
2133647.0,1611470341.831
2135867.0,1611470341.872
2137676.0,1611470341.911
2139498.0,1611470341.951
2141119.0,1611470341.993
2143242.0,1611470342.033
2145436.0,1611470342.07
2146314.0,1611470342.112
2145614.0,1611470342.151
2143449.0,1611470342.191
2141992.0,1611470342.233
2141139.0,1611470342.272
2141112.0,1611470342.312
2141747.0,1611470342.353
2142457.0,1611470342.39
2143476.0,1611470342.431
2144633.0,1611470342.472
2145918.0,1611470342.511
2147083.0,1611470342.552
2148632.0,1611470342.593
2150226.0,1611470342.633
2151885.0,1611470342.672
2152210.0,1611470342.713
2150715.0,1611470342.751
2147807.0,1611470342.791
2145607.0,1611470342.833
2144043.0,1611470342.871
2143413.0,1611470342.912
2143110.0,1611470342.953
2143090.0,1611470342.992
2143702.0,1611470343.033
2144003.0,1611470343.074
2144706.0,1611470343.111
2145345.0,1611470343.151
2146517.0,1611470343.192
2147891.0,1611470343.232
2149530.0,1611470343.272
2149586.0,1611470343.313
2147935.0,1611470343.352
2145324.0,1611470343.393
2143073.0,1611470343.433
2141398.0,1611470343.473
2140485.0,1611470343.511
2140443.0,1611470343.552
2140287.0,1611470343.592
2140376.0,1611470343.633
2138931.0,1611470343.673
2135196.0,1611470343.712
2131674.0,1611470343.753
2129438.0,1611470343.794
2126907.0,1611470343.834
2125851.0,1611470343.871
2128463.0,1611470343.913
2131174.0,1611470343.952
2129245.0,1611470343.992
2127117.0,1611470344.034
2129329.0,1611470344.073
2131781.0,1611470344.113
2137646.0,1611470344.154
2141644.0,1611470344.191
2145124.0,1611470344.232
2147406.0,1611470344.273
2149106.0,1611470344.312
2150432.0,1611470344.353
2151925.0,1611470344.394
2153747.0,1611470344.434
2155389.0,1611470344.473
2156470.0,1611470344.515
2155397.0,1611470344.552
2152942.0,1611470344.592
2150911.0,1611470344.634
2149456.0,1611470344.672
2149103.0,1611470344.713
2149410.0,1611470344.754
2149979.0,1611470344.793
2150818.0,1611470344.834
2150982.0,1611470344.875
2151986.0,1611470344.912
2152598.0,1611470344.952
2154188.0,1611470344.994
2155063.0,1611470345.033
2156291.0,1611470345.073
2156734.0,1611470345.114
2154559.0,1611470345.154
2152026.0,1611470345.194
2149961.0,1611470345.234
2148444.0,1611470345.272
2147654.0,1611470345.313
2147904.0,1611470345.354
2148190.0,1611470345.393
2148687.0,1611470345.434
2149338.0,1611470345.475
2150215.0,1611470345.514
2150950.0,1611470345.554
2152147.0,1611470345.593
2153077.0,1611470345.633
2154156.0,1611470345.673
2154161.0,1611470345.714
2151936.0,1611470345.753
2149180.0,1611470345.794
2146294.0,1611470345.835
2144461.0,1611470345.874
2143002.0,1611470345.914
2142763.0,1611470345.954
2143543.0,1611470345.992
2144208.0,1611470346.034
2144843.0,1611470346.074
2145478.0,1611470346.113
2145755.0,1611470346.154
2146868.0,1611470346.195
2152022.0,1611470346.235
2154559.0,1611470346.275
2152122.0,1611470346.314
2152123.0,1611470346.353
2152030.0,1611470346.393
2153323.0,1611470346.435
2155995.0,1611470346.474
2157258.0,1611470346.514
2158841.0,1611470346.555
2160184.0,1611470346.595
2161406.0,1611470346.636
2162585.0,1611470346.674
2163864.0,1611470346.713
2164896.0,1611470346.754
2166391.0,1611470346.795
2167561.0,1611470346.835
2169017.0,1611470346.874
2170448.0,1611470346.916
2171774.0,1611470346.955
2171575.0,1611470346.995
2169508.0,1611470347.035
2167104.0,1611470347.074
2165578.0,1611470347.114
2164492.0,1611470347.155
2163991.0,1611470347.194
2164374.0,1611470347.235
2165091.0,1611470347.276
2165988.0,1611470347.315
2166716.0,1611470347.353
2167394.0,1611470347.395
2168587.0,1611470347.434
2170107.0,1611470347.474
2171326.0,1611470347.515
2172730.0,1611470347.555
2174317.0,1611470347.595
2174295.0,1611470347.637
2172530.0,1611470347.675
2169977.0,1611470347.714
2168553.0,1611470347.755
2167073.0,1611470347.794
2166533.0,1611470347.835
2166839.0,1611470347.876
2167029.0,1611470347.915
2167229.0,1611470347.955
2167501.0,1611470347.997
2168063.0,1611470348.034
2168878.0,1611470348.074
2170077.0,1611470348.115
2171539.0,1611470348.155
2172974.0,1611470348.195
2173409.0,1611470348.237
2172013.0,1611470348.275
2169818.0,1611470348.316
2167984.0,1611470348.355
2166542.0,1611470348.394
2166376.0,1611470348.435
2166964.0,1611470348.515
2166588.0,1611470348.476
2167205.0,1611470348.554
2167716.0,1611470348.594
2168273.0,1611470348.634
2168773.0,1611470348.674
2169476.0,1611470348.715
2170320.0,1611470348.754
2171486.0,1611470348.795
2172340.0,1611470348.836
2171590.0,1611470348.875
2169080.0,1611470348.915
2166383.0,1611470348.956
2163975.0,1611470348.995
2162614.0,1611470349.035
2161706.0,1611470349.076
2161602.0,1611470349.115
2162088.0,1611470349.155
2162520.0,1611470349.196
2162638.0,1611470349.236
2163510.0,1611470349.276
2164604.0,1611470349.317
2165696.0,1611470349.357
2166791.0,1611470349.397
2168243.0,1611470349.439
2169418.0,1611470349.477
2168338.0,1611470349.516
2165737.0,1611470349.557
2162921.0,1611470349.596
2160656.0,1611470349.637
2159047.0,1611470349.678
2158367.0,1611470349.717
2158079.0,1611470349.757
2158255.0,1611470349.799
2158607.0,1611470349.838
2158674.0,1611470349.876
2159311.0,1611470349.917
2160163.0,1611470349.956
2161118.0,1611470349.997
2162442.0,1611470350.039
2164084.0,1611470350.077
2165134.0,1611470350.118
2164429.0,1611470350.159
2161766.0,1611470350.196
2159149.0,1611470350.237
2157591.0,1611470350.278
2156063.0,1611470350.317
2155643.0,1611470350.357
2155867.0,1611470350.398
2156200.0,1611470350.438
2156602.0,1611470350.478
2156351.0,1611470350.519
2154983.0,1611470350.556
2151221.0,1611470350.597
2147773.0,1611470350.638
2144769.0,1611470350.677
2143100.0,1611470350.717
2141911.0,1611470350.759
2141850.0,1611470350.798
2141550.0,1611470350.839
2140095.0,1611470350.879
2138469.0,1611470350.916
2136406.0,1611470350.957
2134639.0,1611470350.998
2132777.0,1611470351.038
2132194.0,1611470351.078
2132351.0,1611470351.118
2133304.0,1611470351.156
2138730.0,1611470351.196
2140920.0,1611470351.238
2137432.0,1611470351.277
2139363.0,1611470351.317
2143256.0,1611470351.358
2148385.0,1611470351.397
2154752.0,1611470351.438
2157287.0,1611470351.479
2158180.0,1611470351.518
2158901.0,1611470351.559
2159928.0,1611470351.6
2161209.0,1611470351.638
2162739.0,1611470351.677
2164307.0,1611470351.718
2165822.0,1611470351.758
2167130.0,1611470351.798
2168469.0,1611470351.84
2169759.0,1611470351.878
2171394.0,1611470351.919
2172962.0,1611470351.96
2174484.0,1611470351.997
2175808.0,1611470352.038
2174604.0,1611470352.079
2172156.0,1611470352.118
2170099.0,1611470352.159
2168525.0,1611470352.2
2167726.0,1611470352.24
2167263.0,1611470352.279
2167573.0,1611470352.318
2168174.0,1611470352.358
2168731.0,1611470352.398
2169550.0,1611470352.44
2170292.0,1611470352.478
2171075.0,1611470352.519
2172598.0,1611470352.56
2174073.0,1611470352.599
2175661.0,1611470352.64
2176028.0,1611470352.679
2174556.0,1611470352.718
2171841.0,1611470352.758
2169910.0,1611470352.799
2168517.0,1611470352.839
2167313.0,1611470352.879
2167321.0,1611470352.92
2167379.0,1611470352.959
2167933.0,1611470353.0
2168317.0,1611470353.039
2168810.0,1611470353.078
2169848.0,1611470353.119
2172261.0,1611470353.199
2170825.0,1611470353.16
2173360.0,1611470353.24
2175171.0,1611470353.281
2175827.0,1611470353.32
2174211.0,1611470353.358
2171641.0,1611470353.399
2169777.0,1611470353.439
2168330.0,1611470353.479
2167782.0,1611470353.52
2167829.0,1611470353.559
2168067.0,1611470353.6
2167295.0,1611470353.641
2166822.0,1611470353.679
2164271.0,1611470353.719
2162733.0,1611470353.761
2162372.0,1611470353.798
2162570.0,1611470353.839
2162827.0,1611470353.88
2163423.0,1611470353.919
2164367.0,1611470353.959
2165588.0,1611470354.001
2165635.0,1611470354.04
2165776.0,1611470354.08
2165240.0,1611470354.119
2165852.0,1611470354.159
2167610.0,1611470354.199
2169541.0,1611470354.241
2171058.0,1611470354.279
2172305.0,1611470354.32
2173260.0,1611470354.361
2174863.0,1611470354.4
2176371.0,1611470354.441
2177872.0,1611470354.48
2179840.0,1611470354.519
2181263.0,1611470354.559
2181224.0,1611470354.6
2179448.0,1611470354.64
2177838.0,1611470354.68
2176477.0,1611470354.721
2176095.0,1611470354.76
2176211.0,1611470354.801
2176629.0,1611470354.841
2177579.0,1611470354.879
2178284.0,1611470354.919
2178960.0,1611470354.961
2180164.0,1611470355.0
2181161.0,1611470355.041
2182130.0,1611470355.082
2183746.0,1611470355.121
2185385.0,1611470355.159
2186948.0,1611470355.2
2186981.0,1611470355.24
2185563.0,1611470355.28
2183339.0,1611470355.321
2181480.0,1611470355.36
2180436.0,1611470355.401
2179545.0,1611470355.443
2179790.0,1611470355.481
2180178.0,1611470355.519
2180831.0,1611470355.561
2181371.0,1611470355.6
2182242.0,1611470355.641
2183143.0,1611470355.681
2184603.0,1611470355.72
2185733.0,1611470355.761
2187363.0,1611470355.802
2188567.0,1611470355.842
2189403.0,1611470355.879
2187519.0,1611470355.921
2185519.0,1611470355.96
2183359.0,1611470356.0
2182376.0,1611470356.042
2181553.0,1611470356.081
2181642.0,1611470356.121
2182114.0,1611470356.163
2182656.0,1611470356.2
2183286.0,1611470356.24
2184239.0,1611470356.28
2184756.0,1611470356.319
2185921.0,1611470356.359
2186884.0,1611470356.401
2188140.0,1611470356.441
2187901.0,1611470356.481
2186293.0,1611470356.522
2183765.0,1611470356.561
2179720.0,1611470356.601
2174683.0,1611470356.643
2169024.0,1611470356.682
2164153.0,1611470356.72
2160925.0,1611470356.761
2159474.0,1611470356.8
2157928.0,1611470356.841
2155879.0,1611470356.882
2153898.0,1611470356.921
2152048.0,1611470356.962
2150891.0,1611470357.003
2149350.0,1611470357.043
2148027.0,1611470357.08
2147425.0,1611470357.122
2147262.0,1611470357.161
2145745.0,1611470357.201
2142474.0,1611470357.243
2138529.0,1611470357.282
2135301.0,1611470357.322
2133277.0,1611470357.363
2132320.0,1611470357.4
2132718.0,1611470357.441
2134598.0,1611470357.482
2134274.0,1611470357.521
2134482.0,1611470357.562
2136233.0,1611470357.603
2138826.0,1611470357.643
2142099.0,1611470357.682
2145248.0,1611470357.723
2148358.0,1611470357.761
2151242.0,1611470357.801
2153956.0,1611470357.843
2156009.0,1611470357.881
2157189.0,1611470357.922
2158054.0,1611470357.963
2158364.0,1611470358.002
2159465.0,1611470358.043
2160533.0,1611470358.082
2162198.0,1611470358.121
2163507.0,1611470358.162
2164753.0,1611470358.203
2165888.0,1611470358.243
2166647.0,1611470358.282
2168139.0,1611470358.323
2169540.0,1611470358.363
2171266.0,1611470358.401
2172632.0,1611470358.443
2172371.0,1611470358.481
2170836.0,1611470358.522
2168865.0,1611470358.563
2167306.0,1611470358.602
2166507.0,1611470358.643
2166432.0,1611470358.684
2166702.0,1611470358.723
2167437.0,1611470358.761
2167865.0,1611470358.801
2168562.0,1611470358.842
2169271.0,1611470358.882
2170554.0,1611470358.923
2171622.0,1611470358.962
2173317.0,1611470359.002
2174642.0,1611470359.044
2174780.0,1611470359.083
2173026.0,1611470359.121
2170770.0,1611470359.163
2169007.0,1611470359.202
2168095.0,1611470359.243
2167552.0,1611470359.283
2167783.0,1611470359.323
2168204.0,1611470359.363
2168657.0,1611470359.404
2168566.0,1611470359.444
2168874.0,1611470359.482
2169515.0,1611470359.523
2170689.0,1611470359.562
2172551.0,1611470359.602
2173933.0,1611470359.644
2172153.0,1611470359.683
2162580.0,1611470359.723
2154396.0,1611470359.764
2146542.0,1611470359.804
2141155.0,1611470359.843
2136733.0,1611470359.883
2134476.0,1611470359.922
2132550.0,1611470359.963
2131130.0,1611470360.004
2129973.0,1611470360.044
2129423.0,1611470360.084
2129579.0,1611470360.125
2130444.0,1611470360.162
2132538.0,1611470360.202
2133225.0,1611470360.244
2136842.0,1611470360.283
2135590.0,1611470360.323
2140282.0,1611470360.364
2141880.0,1611470360.403
2143894.0,1611470360.444
2150777.0,1611470360.485
2158969.0,1611470360.522
2166076.0,1611470360.563
2171629.0,1611470360.604
2176960.0,1611470360.644
2182335.0,1611470360.683
2186579.0,1611470360.725
2189312.0,1611470360.764
2192064.0,1611470360.807
2194125.0,1611470360.849
2194147.0,1611470360.887
2192987.0,1611470360.927
2191583.0,1611470360.968
2190281.0,1611470361.007
2189830.0,1611470361.048
2189588.0,1611470361.088
2190117.0,1611470361.127
2190975.0,1611470361.168
2191748.0,1611470361.209
2192750.0,1611470361.248
2193678.0,1611470361.289
2194875.0,1611470361.328
2195667.0,1611470361.366
2197036.0,1611470361.407
2198389.0,1611470361.449
2198398.0,1611470361.487
2196417.0,1611470361.528
2194191.0,1611470361.569
2191992.0,1611470361.608
2191018.0,1611470361.649
2190505.0,1611470361.69
2190619.0,1611470361.727
2190639.0,1611470361.767
2191101.0,1611470361.808
2191684.0,1611470361.848
2192086.0,1611470361.888
2192889.0,1611470361.929
2193769.0,1611470361.968
2194484.0,1611470362.009
2194851.0,1611470362.051
2193554.0,1611470362.087
2190915.0,1611470362.128
2189014.0,1611470362.169
2187828.0,1611470362.208
2187232.0,1611470362.249
2187546.0,1611470362.29
2187867.0,1611470362.329
2188469.0,1611470362.369
2188928.0,1611470362.408
2189380.0,1611470362.448
2190629.0,1611470362.488
2191438.0,1611470362.529
2192698.0,1611470362.568
2193261.0,1611470362.609
2192414.0,1611470362.651
2190216.0,1611470362.689
2187304.0,1611470362.73
2185242.0,1611470362.769
2184087.0,1611470362.808
2183513.0,1611470362.849
2183465.0,1611470362.889
2183512.0,1611470362.929
2183711.0,1611470362.969
2183769.0,1611470363.01
2184071.0,1611470363.05
2184864.0,1611470363.088
2185440.0,1611470363.129
2186399.0,1611470363.168
2186342.0,1611470363.209
2184424.0,1611470363.251
2181188.0,1611470363.289
2178354.0,1611470363.33
2176130.0,1611470363.371
2174595.0,1611470363.408
2174031.0,1611470363.449
2173789.0,1611470363.49
2173783.0,1611470363.529
2174093.0,1611470363.569
2174245.0,1611470363.61
2174484.0,1611470363.65
2175082.0,1611470363.69
2176038.0,1611470363.731
2177022.0,1611470363.768
2176974.0,1611470363.808
2175008.0,1611470363.85
2171975.0,1611470363.889
2169476.0,1611470363.928
2167663.0,1611470363.97
2166631.0,1611470364.009
2165952.0,1611470364.05
2166021.0,1611470364.091
2166163.0,1611470364.128
2166036.0,1611470364.169
2166306.0,1611470364.21
2166535.0,1611470364.25
2167240.0,1611470364.289
2168060.0,1611470364.331
2169196.0,1611470364.37
2170106.0,1611470364.41
2169184.0,1611470364.452
2166859.0,1611470364.489
2164181.0,1611470364.529
2162056.0,1611470364.57
2160798.0,1611470364.609
2160300.0,1611470364.65
2159891.0,1611470364.691
2160490.0,1611470364.73
2160676.0,1611470364.771
2160962.0,1611470364.812
2161254.0,1611470364.849
2162146.0,1611470364.889
2163074.0,1611470364.93
2163755.0,1611470364.97
2165687.0,1611470365.01
2161591.0,1611470365.052
2156184.0,1611470365.091
2148463.0,1611470365.131
2141731.0,1611470365.17
2135739.0,1611470365.209
2130867.0,1611470365.25
2127397.0,1611470365.291
2125463.0,1611470365.33
2124925.0,1611470365.37
2132228.0,1611470365.412
2139242.0,1611470365.451
2140040.0,1611470365.491
2145174.0,1611470365.53
2151880.0,1611470365.57
2158222.0,1611470365.61
2164269.0,1611470365.652
2167380.0,1611470365.69
2167571.0,1611470365.731
2165673.0,1611470365.772
2164252.0,1611470365.811
2163386.0,1611470365.852
2162862.0,1611470365.89
2163244.0,1611470365.93
2163901.0,1611470365.97
2164387.0,1611470366.011
2164897.0,1611470366.051
2166065.0,1611470366.091
2167261.0,1611470366.132
2168540.0,1611470366.171
2170123.0,1611470366.21
2171687.0,1611470366.252
2173191.0,1611470366.29
2174112.0,1611470366.33
2172578.0,1611470366.372
2170154.0,1611470366.411
2167872.0,1611470366.452
2166290.0,1611470366.491
2164977.0,1611470366.529
2164646.0,1611470366.569
2164939.0,1611470366.611
2165544.0,1611470366.65
2165959.0,1611470366.69
2166439.0,1611470366.731
2166988.0,1611470366.77
2168042.0,1611470366.811
2169354.0,1611470366.853
2170612.0,1611470366.891
2172015.0,1611470366.932
2171852.0,1611470366.973
2169916.0,1611470367.012
2167208.0,1611470367.051
2165189.0,1611470367.092
2163679.0,1611470367.131
2162740.0,1611470367.171
2162613.0,1611470367.213
2163052.0,1611470367.252
2163295.0,1611470367.292
2163690.0,1611470367.333
2163958.0,1611470367.37
2164827.0,1611470367.411
2165863.0,1611470367.453
2167169.0,1611470367.491
2168480.0,1611470367.531
2170081.0,1611470367.573
2170256.0,1611470367.612
2169020.0,1611470367.653
2165153.0,1611470367.693
2161191.0,1611470367.73
2154274.0,1611470367.771
2149077.0,1611470367.812
2144338.0,1611470367.852
2140655.0,1611470367.892
2138442.0,1611470367.933
2136754.0,1611470367.972
2135769.0,1611470368.012
2139206.0,1611470368.054
2141827.0,1611470368.091
2147037.0,1611470368.131
2149831.0,1611470368.172
2152575.0,1611470368.212
2157235.0,1611470368.253
2163358.0,1611470368.293
2169142.0,1611470368.332
2172803.0,1611470368.373
2175633.0,1611470368.412
2178770.0,1611470368.452
2180826.0,1611470368.491
2182619.0,1611470368.533
2183735.0,1611470368.572
2185423.0,1611470368.612
2187052.0,1611470368.654
2188705.0,1611470368.693
2189916.0,1611470368.733
2191637.0,1611470368.772
2193411.0,1611470368.811
2194827.0,1611470368.852
2194455.0,1611470368.893
2193007.0,1611470368.932
2191335.0,1611470368.973
2190294.0,1611470369.014
2189921.0,1611470369.053
2189781.0,1611470369.089
2190826.0,1611470369.131
2191462.0,1611470369.171
2191932.0,1611470369.211
2192769.0,1611470369.253
2193494.0,1611470369.292
2194638.0,1611470369.332
2195646.0,1611470369.373
2196817.0,1611470369.412
2198006.0,1611470369.453
2197015.0,1611470369.494
2194407.0,1611470369.533
2192138.0,1611470369.574
2190477.0,1611470369.613
2189506.0,1611470369.653
2188951.0,1611470369.692
2189058.0,1611470369.734
2188948.0,1611470369.773
2189473.0,1611470369.813
2189744.0,1611470369.859
2190302.0,1611470369.894
2191009.0,1611470369.932
2191820.0,1611470369.973
2192992.0,1611470370.012
2193098.0,1611470370.053
2192476.0,1611470370.094
2188730.0,1611470370.133
2183271.0,1611470370.174
2178076.0,1611470370.213
2172406.0,1611470370.253
2170864.0,1611470370.293
2173088.0,1611470370.334
2173982.0,1611470370.373
2175716.0,1611470370.413
2176009.0,1611470370.455
2176953.0,1611470370.494
2181511.0,1611470370.534
2188037.0,1611470370.573
2194640.0,1611470370.613
2199736.0,1611470370.654
2201677.0,1611470370.694
2201102.0,1611470370.733
2199948.0,1611470370.815
2200353.0,1611470370.774
2199049.0,1611470370.855
2199294.0,1611470370.894
2201317.0,1611470370.973
2200055.0,1611470370.934
2202260.0,1611470371.013
2202325.0,1611470371.055
2203429.0,1611470371.094
2204432.0,1611470371.134
2205655.0,1611470371.175
2206874.0,1611470371.215
2208053.0,1611470371.253
2208116.0,1611470371.294
2206686.0,1611470371.333
2204162.0,1611470371.374
2201989.0,1611470371.415
2200673.0,1611470371.455
2199922.0,1611470371.494
2199782.0,1611470371.536
2200331.0,1611470371.575
2200606.0,1611470371.612
2201018.0,1611470371.654
2201602.0,1611470371.692
2202484.0,1611470371.733
2203063.0,1611470371.774
2204423.0,1611470371.813
2205326.0,1611470371.854
2206008.0,1611470371.895
2204826.0,1611470371.934
2202629.0,1611470371.975
2200710.0,1611470372.016
2199594.0,1611470372.054
2198798.0,1611470372.094
2198543.0,1611470372.135
2198853.0,1611470372.174
2199251.0,1611470372.214
2199560.0,1611470372.256
2199871.0,1611470372.295
2200374.0,1611470372.335
2201182.0,1611470372.374
2202190.0,1611470372.414
2203304.0,1611470372.455
2202940.0,1611470372.495
2200660.0,1611470372.534
2198425.0,1611470372.575
2196722.0,1611470372.616
2195683.0,1611470372.656
2195205.0,1611470372.695
2195286.0,1611470372.735
2195537.0,1611470372.774
2195903.0,1611470372.815
2196326.0,1611470372.857
2196810.0,1611470372.895
2197378.0,1611470372.935
2198453.0,1611470372.976
2199534.0,1611470373.015
2200559.0,1611470373.056
2200505.0,1611470373.097
2198316.0,1611470373.136
2195693.0,1611470373.176
2193430.0,1611470373.217
2191842.0,1611470373.256
2190735.0,1611470373.297
2190482.0,1611470373.338
2190348.0,1611470373.377
2190752.0,1611470373.418
2190590.0,1611470373.46
2191215.0,1611470373.496
2191468.0,1611470373.536
2192577.0,1611470373.578
2193348.0,1611470373.617
2194756.0,1611470373.658
2194942.0,1611470373.698
2193574.0,1611470373.738
2190526.0,1611470373.778
2188048.0,1611470373.819
2186272.0,1611470373.857
2184852.0,1611470373.897
2184162.0,1611470373.938
2184142.0,1611470373.977
2184194.0,1611470374.017
2184240.0,1611470374.059
2184119.0,1611470374.098
2184802.0,1611470374.138
2185501.0,1611470374.176
2186634.0,1611470374.215
2187782.0,1611470374.256
2188829.0,1611470374.297
2188103.0,1611470374.336
2185464.0,1611470374.377
2182752.0,1611470374.418
2179638.0,1611470374.497
2181016.0,1611470374.458
2178760.0,1611470374.578
2179004.0,1611470374.539
2179137.0,1611470374.618
2178375.0,1611470374.66
2178922.0,1611470374.699
2180124.0,1611470374.737
2181478.0,1611470374.778
2182403.0,1611470374.817
2182713.0,1611470374.858
2180713.0,1611470374.899
2175460.0,1611470374.938
2170016.0,1611470374.979
2165824.0,1611470375.02
2163144.0,1611470375.058
2161294.0,1611470375.097
2161001.0,1611470375.139
2160637.0,1611470375.178
2160626.0,1611470375.218
2161292.0,1611470375.26
2161218.0,1611470375.299
2160808.0,1611470375.339
2161310.0,1611470375.378
2161454.0,1611470375.417
2161491.0,1611470375.458
2160924.0,1611470375.499
2158668.0,1611470375.538
2155236.0,1611470375.579
2152397.0,1611470375.62
2150197.0,1611470375.66
2148231.0,1611470375.699
2146725.0,1611470375.738
2146008.0,1611470375.778
2146768.0,1611470375.818
2147506.0,1611470375.86
2148249.0,1611470375.898
2149308.0,1611470375.939
2150817.0,1611470375.98
2152086.0,1611470376.019
2153299.0,1611470376.06
2154316.0,1611470376.099
2153402.0,1611470376.138
2151098.0,1611470376.178
2149097.0,1611470376.22
2148934.0,1611470376.259
2149709.0,1611470376.299
2150816.0,1611470376.34
2153340.0,1611470376.38
2155989.0,1611470376.418
2158266.0,1611470376.46
2159853.0,1611470376.498
2161843.0,1611470376.539
2163341.0,1611470376.58
2165010.0,1611470376.619
2166758.0,1611470376.66
2168625.0,1611470376.701
2170074.0,1611470376.74
2169793.0,1611470376.776
2167741.0,1611470376.817
2165296.0,1611470376.858
2162823.0,1611470376.898
2161618.0,1611470376.939
2160497.0,1611470376.978
2160195.0,1611470377.019
2160533.0,1611470377.061
2160883.0,1611470377.099
2161090.0,1611470377.14
2161391.0,1611470377.181
2161715.0,1611470377.22
2162676.0,1611470377.259
2163604.0,1611470377.3
2165207.0,1611470377.339
2165485.0,1611470377.379
2164140.0,1611470377.42
2162061.0,1611470377.46
2160002.0,1611470377.5
2158681.0,1611470377.541
2158132.0,1611470377.579
2158197.0,1611470377.619
2158696.0,1611470377.661
2158961.0,1611470377.699
2159591.0,1611470377.74
2160390.0,1611470377.781
2160997.0,1611470377.82
2162148.0,1611470377.861
2163648.0,1611470377.902
2164727.0,1611470377.939
2164998.0,1611470377.979
2163094.0,1611470378.02
2160966.0,1611470378.06
2158757.0,1611470378.1
2156569.0,1611470378.141
2156220.0,1611470378.181
2153116.0,1611470378.221
2147140.0,1611470378.261
2141387.0,1611470378.299
2137802.0,1611470378.339
2135549.0,1611470378.381
2134438.0,1611470378.42
2134386.0,1611470378.461
2136066.0,1611470378.501
2139808.0,1611470378.541
2141454.0,1611470378.581
2145036.0,1611470378.66
2145003.0,1611470378.62
2143257.0,1611470378.7
2145291.0,1611470378.741
2150083.0,1611470378.78
2155042.0,1611470378.82
2158942.0,1611470378.862
2168664.0,1611470378.941
2173569.0,1611470379.02
2175506.0,1611470379.061
2176829.0,1611470379.101
2171875.0,1611470378.98
2164254.0,1611470378.901
2178189.0,1611470379.141
2179811.0,1611470379.181
2181321.0,1611470379.222
2181508.0,1611470379.262
2179852.0,1611470379.298
2177961.0,1611470379.34
2176405.0,1611470379.379
2174666.0,1611470379.462
2175413.0,1611470379.42
2174889.0,1611470379.5
2176213.0,1611470379.582
2176969.0,1611470379.621
2177835.0,1611470379.662
2175479.0,1611470379.54
2179004.0,1611470379.702
2180264.0,1611470379.742
2181806.0,1611470379.78
2183396.0,1611470379.821
2184503.0,1611470379.861
2184705.0,1611470379.901
2181384.0,1611470379.981
2183178.0,1611470379.942
2179717.0,1611470380.021
2179144.0,1611470380.063
2178807.0,1611470380.1
2179065.0,1611470380.14
2179952.0,1611470380.182
2180467.0,1611470380.221
2181243.0,1611470380.262
2181767.0,1611470380.302
2182902.0,1611470380.342
2184117.0,1611470380.382
2185489.0,1611470380.421
2186858.0,1611470380.461
2187754.0,1611470380.501
2186860.0,1611470380.542
2184797.0,1611470380.581
2182970.0,1611470380.621
2181469.0,1611470380.663
2179781.0,1611470380.702
2178900.0,1611470380.742
2172958.0,1611470380.821
2175694.0,1611470380.781
2170828.0,1611470380.862
2169407.0,1611470380.902
2168677.0,1611470380.941
2169200.0,1611470380.982
2170165.0,1611470381.023
2172203.0,1611470381.063
2173464.0,1611470381.101
2173478.0,1611470381.142
2173181.0,1611470381.181
2173004.0,1611470381.222
2172638.0,1611470381.263
2173456.0,1611470381.302
2174448.0,1611470381.342
2175425.0,1611470381.384
2176476.0,1611470381.421
2176984.0,1611470381.462
2178131.0,1611470381.502
2179163.0,1611470381.541
2180395.0,1611470381.582
2181865.0,1611470381.623
2183383.0,1611470381.663
2184764.0,1611470381.703
2184953.0,1611470381.744
2183196.0,1611470381.781
2180626.0,1611470381.821
2178583.0,1611470381.863
2176988.0,1611470381.899
2176180.0,1611470381.939
2175674.0,1611470381.981
2175900.0,1611470382.02
2176186.0,1611470382.062
2176523.0,1611470382.102
2176798.0,1611470382.141
2177488.0,1611470382.182
2178588.0,1611470382.223
2179954.0,1611470382.263
2181461.0,1611470382.303
2182845.0,1611470382.344
2182314.0,1611470382.383
2179993.0,1611470382.421
2177804.0,1611470382.463
2175925.0,1611470382.502
2174809.0,1611470382.542
2174422.0,1611470382.583
2174222.0,1611470382.623
2174680.0,1611470382.664
2175026.0,1611470382.704
2175506.0,1611470382.743
2176055.0,1611470382.782
2177010.0,1611470382.823
2177771.0,1611470382.863
2179199.0,1611470382.902
2180494.0,1611470382.944
2181536.0,1611470382.983
2180645.0,1611470383.023
2178385.0,1611470383.065
2176104.0,1611470383.104
2174346.0,1611470383.142
2172992.0,1611470383.183
2172664.0,1611470383.222
2172603.0,1611470383.263
2173315.0,1611470383.304
2173520.0,1611470383.343
2173217.0,1611470383.383
2173112.0,1611470383.425
2173031.0,1611470383.464
2171699.0,1611470383.502
2171360.0,1611470383.543
2170520.0,1611470383.582
2169950.0,1611470383.623
2167266.0,1611470383.665
2162588.0,1611470383.703
2151373.0,1611470383.824
2153872.0,1611470383.785
2157888.0,1611470383.743
2149990.0,1611470383.863
2149623.0,1611470383.943
2149829.0,1611470383.903
2150056.0,1611470384.024
2149474.0,1611470383.983
2151877.0,1611470384.064
2154975.0,1611470384.104
2157885.0,1611470384.145
2161144.0,1611470384.182
2164381.0,1611470384.223
2166472.0,1611470384.265
2166415.0,1611470384.303
2164638.0,1611470384.343
2163099.0,1611470384.385
2162648.0,1611470384.42
2162543.0,1611470384.462
2162969.0,1611470384.503
2163968.0,1611470384.542
2164734.0,1611470384.583
2165345.0,1611470384.624
2166185.0,1611470384.664
2167121.0,1611470384.703
2168586.0,1611470384.745
2169773.0,1611470384.784
2171200.0,1611470384.815
2172844.0,1611470384.857
2173541.0,1611470384.895
2171948.0,1611470384.935
2169155.0,1611470384.976
2166683.0,1611470385.015
2164979.0,1611470385.056
2163832.0,1611470385.097
2163096.0,1611470385.136
2163236.0,1611470385.176
2163251.0,1611470385.217
2163575.0,1611470385.258
2164339.0,1611470385.336
2163615.0,1611470385.295
2165103.0,1611470385.376
2167561.0,1611470385.458
2168777.0,1611470385.496
2166217.0,1611470385.416
2169206.0,1611470385.537
2167416.0,1611470385.578
2164322.0,1611470385.617
2160069.0,1611470385.696
2162306.0,1611470385.656
2158028.0,1611470385.776
2158703.0,1611470385.736
2157845.0,1611470385.817
2158126.0,1611470385.857
2158276.0,1611470385.897
2158409.0,1611470385.938
2158800.0,1611470385.977
2160660.0,1611470386.057
2161649.0,1611470386.096
2162100.0,1611470386.136
2159123.0,1611470386.217
2159492.0,1611470386.015
2161894.0,1611470386.178
2153972.0,1611470386.258
2148060.0,1611470386.299
2142695.0,1611470386.336
2137550.0,1611470386.376
2133318.0,1611470386.417
2131082.0,1611470386.457
2130821.0,1611470386.497
2132159.0,1611470386.538
2135698.0,1611470386.577
2139724.0,1611470386.617
2144615.0,1611470386.659
2147706.0,1611470386.696
2150772.0,1611470386.736
2153066.0,1611470386.777
2153702.0,1611470386.817
2152379.0,1611470386.858
2150298.0,1611470386.898
2148773.0,1611470386.936
2147872.0,1611470386.974
2147792.0,1611470387.015
2147970.0,1611470387.055
2148536.0,1611470387.095
2149000.0,1611470387.136
2149560.0,1611470387.176
2150288.0,1611470387.216
2151373.0,1611470387.258
2152557.0,1611470387.296
2153689.0,1611470387.337
2155261.0,1611470387.378
2155291.0,1611470387.417
2153362.0,1611470387.458
2150085.0,1611470387.499
2147648.0,1611470387.538
2145726.0,1611470387.576
2145072.0,1611470387.618
2144547.0,1611470387.657
2144597.0,1611470387.697
2144228.0,1611470387.738
2143970.0,1611470387.778
2144073.0,1611470387.818
2144611.0,1611470387.86
2145792.0,1611470387.898
2146493.0,1611470387.937
2147681.0,1611470387.978
2146974.0,1611470388.017
2144050.0,1611470388.058
2140560.0,1611470388.099
2137920.0,1611470388.138
2135817.0,1611470388.179
2134226.0,1611470388.22
2133565.0,1611470388.257
2133403.0,1611470388.297
2133162.0,1611470388.338
2132774.0,1611470388.377
2132925.0,1611470388.418
2133671.0,1611470388.46
2134337.0,1611470388.498
2135398.0,1611470388.539
2135296.0,1611470388.58
2133701.0,1611470388.617
2127776.0,1611470388.658
2120393.0,1611470388.699
2113476.0,1611470388.738
2107098.0,1611470388.778
2102015.0,1611470388.819
2094647.0,1611470388.899
2097897.0,1611470388.859
2091495.0,1611470388.94
2089032.0,1611470388.977
2088401.0,1611470389.017
2093478.0,1611470389.059
2098413.0,1611470389.098
2099082.0,1611470389.138
2101973.0,1611470389.18
2106583.0,1611470389.219
2110751.0,1611470389.26
2111999.0,1611470389.298
2112198.0,1611470389.338
2112047.0,1611470389.378
2111150.0,1611470389.419
2111462.0,1611470389.459
2112567.0,1611470389.499
2114176.0,1611470389.536
2115731.0,1611470389.577
2116993.0,1611470389.617
2118300.0,1611470389.659
2119449.0,1611470389.697
2120800.0,1611470389.738
2122416.0,1611470389.779
2123920.0,1611470389.818
2125820.0,1611470389.859
2127515.0,1611470389.9
2128659.0,1611470389.939
2126800.0,1611470389.98
2123499.0,1611470390.021
2120531.0,1611470390.058
2118450.0,1611470390.098
2117140.0,1611470390.14
2116454.0,1611470390.179
2116535.0,1611470390.219
2116697.0,1611470390.261
2116675.0,1611470390.299
2116787.0,1611470390.34
2117820.0,1611470390.379
2118670.0,1611470390.418
2120169.0,1611470390.459
2121437.0,1611470390.5
2123103.0,1611470390.539
2124741.0,1611470390.579
2124260.0,1611470390.621
2122060.0,1611470390.661
2120308.0,1611470390.7
2119288.0,1611470390.739
2119029.0,1611470390.778
2119532.0,1611470390.819
2120502.0,1611470390.861
2121549.0,1611470390.899
2122511.0,1611470390.94
2123481.0,1611470390.981
2124899.0,1611470391.02
2126100.0,1611470391.061
2127733.0,1611470391.1
2129396.0,1611470391.139
2130923.0,1611470391.179
2130999.0,1611470391.22
2128867.0,1611470391.26
2126518.0,1611470391.3
2124717.0,1611470391.341
2123606.0,1611470391.38
2122867.0,1611470391.419
2122938.0,1611470391.461
2123401.0,1611470391.499
2123879.0,1611470391.539
2124470.0,1611470391.581
2125489.0,1611470391.62
2126333.0,1611470391.661
2127717.0,1611470391.702
2128943.0,1611470391.741
2130535.0,1611470391.779
2132208.0,1611470391.82
2132758.0,1611470391.86
2131539.0,1611470391.9
2128678.0,1611470391.941
2126511.0,1611470391.98
2124775.0,1611470392.02
2123468.0,1611470392.062
2123202.0,1611470392.1
2123884.0,1611470392.141
2124305.0,1611470392.18
2124705.0,1611470392.219
2125765.0,1611470392.26
2126578.0,1611470392.301
2127466.0,1611470392.34
2128940.0,1611470392.38
2130613.0,1611470392.422
2132582.0,1611470392.461
2134572.0,1611470392.501
2135652.0,1611470392.54
2134366.0,1611470392.58
2131878.0,1611470392.62
2130444.0,1611470392.662
2129172.0,1611470392.7
2128685.0,1611470392.741
2128426.0,1611470392.782
2128821.0,1611470392.821
2129688.0,1611470392.862
2130472.0,1611470392.901
2131295.0,1611470392.94
2132556.0,1611470392.98
2133839.0,1611470393.021
2135189.0,1611470393.061
2137118.0,1611470393.101
2138773.0,1611470393.142
2140616.0,1611470393.182
2141207.0,1611470393.22
2139769.0,1611470393.262
2137790.0,1611470393.3
2136128.0,1611470393.341
2135405.0,1611470393.382
2135115.0,1611470393.421
2135438.0,1611470393.462
2135947.0,1611470393.503
2136662.0,1611470393.542
2137313.0,1611470393.58
2138411.0,1611470393.621
2139497.0,1611470393.661
2141033.0,1611470393.701
2142734.0,1611470393.742
2144395.0,1611470393.781
2146378.0,1611470393.821
2147732.0,1611470393.863
2147681.0,1611470393.902
2146166.0,1611470393.94
2144840.0,1611470393.981
2144270.0,1611470394.021
2143978.0,1611470394.062
2144291.0,1611470394.102
2145405.0,1611470394.142
2146324.0,1611470394.182
2147245.0,1611470394.223
2148198.0,1611470394.261
2149533.0,1611470394.301
2150992.0,1611470394.342
2152486.0,1611470394.381
2154429.0,1611470394.421
2156335.0,1611470394.463
2157697.0,1611470394.502
2157095.0,1611470394.542
2155360.0,1611470394.583
2154031.0,1611470394.621
2153238.0,1611470394.66
2152695.0,1611470394.702
2153119.0,1611470394.741
2153968.0,1611470394.781
2155014.0,1611470394.823
2155852.0,1611470394.862
2156937.0,1611470394.902
2158333.0,1611470394.943
2159631.0,1611470394.983
2161382.0,1611470395.021
2162977.0,1611470395.063
2164952.0,1611470395.101
2166788.0,1611470395.142
2168398.0,1611470395.183
2167577.0,1611470395.222
2165640.0,1611470395.263
2164000.0,1611470395.304
2163134.0,1611470395.341
2162563.0,1611470395.381
2162526.0,1611470395.423
2162958.0,1611470395.462
2163618.0,1611470395.502
2164256.0,1611470395.543
2165104.0,1611470395.583
2166111.0,1611470395.623
2167416.0,1611470395.665
2168796.0,1611470395.701
2170318.0,1611470395.741
2172037.0,1611470395.783
2173705.0,1611470395.822
2175311.0,1611470395.863
2176069.0,1611470395.903
2174749.0,1611470395.943
2172889.0,1611470395.983
2170552.0,1611470396.024
2168568.0,1611470396.062
2166238.0,1611470396.102
2164414.0,1611470396.143
2163792.0,1611470396.182
2164280.0,1611470396.223
2165281.0,1611470396.265
2168158.0,1611470396.303
2171363.0,1611470396.343
2174193.0,1611470396.383
2176980.0,1611470396.422
2178968.0,1611470396.463
2181054.0,1611470396.503
2183077.0,1611470396.543
2184784.0,1611470396.583
2185332.0,1611470396.624
2184265.0,1611470396.664
2182546.0,1611470396.702
2180857.0,1611470396.743
2180007.0,1611470396.782
2179521.0,1611470396.824
2179715.0,1611470396.866
2180489.0,1611470396.905
2181115.0,1611470396.945
2181836.0,1611470396.986
2182860.0,1611470397.025
2183799.0,1611470397.066
2185137.0,1611470397.106
2186584.0,1611470397.145
2187984.0,1611470397.185
2189408.0,1611470397.226
2191257.0,1611470397.266
2192514.0,1611470397.304
2192041.0,1611470397.345
2190484.0,1611470397.385
2189068.0,1611470397.425
2188132.0,1611470397.467
2188111.0,1611470397.506
2188322.0,1611470397.546
2188906.0,1611470397.587
2189774.0,1611470397.626
2190540.0,1611470397.667
2191360.0,1611470397.708
2192365.0,1611470397.747
2193592.0,1611470397.786
2194811.0,1611470397.827
2196252.0,1611470397.867
2197947.0,1611470397.906
2198763.0,1611470397.947
2198425.0,1611470397.987
2196544.0,1611470398.027
2195428.0,1611470398.069
2194842.0,1611470398.106
2194625.0,1611470398.146
2195196.0,1611470398.187
2195759.0,1611470398.227
2196659.0,1611470398.267
2197295.0,1611470398.308
2198188.0,1611470398.347
2199180.0,1611470398.388
2200385.0,1611470398.427
2201801.0,1611470398.467
2202848.0,1611470398.506
2204294.0,1611470398.548
2204965.0,1611470398.587
2203470.0,1611470398.627
2201093.0,1611470398.669
2199494.0,1611470398.708
2198569.0,1611470398.746
2197916.0,1611470398.787
2198094.0,1611470398.826
2198537.0,1611470398.867
2199052.0,1611470398.908
2199462.0,1611470398.947
2200416.0,1611470398.988
2201099.0,1611470399.029
2202372.0,1611470399.069
2203440.0,1611470399.106
2204691.0,1611470399.148
2205914.0,1611470399.187
2206840.0,1611470399.227
2205546.0,1611470399.269
2203283.0,1611470399.308
2200895.0,1611470399.348
2199538.0,1611470399.389
2198139.0,1611470399.426
2197622.0,1611470399.467
2197532.0,1611470399.508
2197637.0,1611470399.547
2197530.0,1611470399.588
2197825.0,1611470399.629
2197974.0,1611470399.669
2198443.0,1611470399.708
2198953.0,1611470399.748
2199558.0,1611470399.786
2200116.0,1611470399.826
2200276.0,1611470399.868
2198614.0,1611470399.907
2195721.0,1611470399.947
2192645.0,1611470399.989
2190056.0,1611470400.028
2187532.0,1611470400.069
2185813.0,1611470400.11
2184149.0,1611470400.147
2183332.0,1611470400.187
2182315.0,1611470400.228
2181562.0,1611470400.268
2180952.0,1611470400.308
2180197.0,1611470400.349
2179997.0,1611470400.389
2180256.0,1611470400.433
2180352.0,1611470400.469
2180894.0,1611470400.507
2180055.0,1611470400.548
2177192.0,1611470400.589
2173835.0,1611470400.628
2170874.0,1611470400.669
2168678.0,1611470400.71
2166704.0,1611470400.749
2165615.0,1611470400.787
2164823.0,1611470400.828
2164161.0,1611470400.868
2163513.0,1611470400.908
2163051.0,1611470400.948
2162851.0,1611470400.987
2163098.0,1611470401.028
2163825.0,1611470401.07
2164233.0,1611470401.109
2165011.0,1611470401.147
2164521.0,1611470401.189
2161992.0,1611470401.228
2158980.0,1611470401.269
2156575.0,1611470401.31
2154945.0,1611470401.349
2153707.0,1611470401.389
2153169.0,1611470401.431
2152706.0,1611470401.468
2152284.0,1611470401.508
2151896.0,1611470401.549
2151969.0,1611470401.589
2151931.0,1611470401.629
2152249.0,1611470401.671
2152828.0,1611470401.709
2153764.0,1611470401.748
2154528.0,1611470401.789
2153691.0,1611470401.828
2151180.0,1611470401.869
2147425.0,1611470401.91
2145141.0,1611470401.949
2142902.0,1611470401.99
2141345.0,1611470402.031
2140358.0,1611470402.069
2140006.0,1611470402.108
2139209.0,1611470402.15
2138654.0,1611470402.189
2138196.0,1611470402.23
2138044.0,1611470402.271
2138442.0,1611470402.311
2138906.0,1611470402.346
2139716.0,1611470402.387
2140374.0,1611470402.427
2139764.0,1611470402.468
2137666.0,1611470402.509
2133803.0,1611470402.548
2131101.0,1611470402.589
2128684.0,1611470402.63
2126809.0,1611470402.67
2125657.0,1611470402.709
2125157.0,1611470402.751
2124756.0,1611470402.79
2124168.0,1611470402.831
2124081.0,1611470402.87
2124071.0,1611470402.909
2124660.0,1611470402.949
2125433.0,1611470402.99
2126470.0,1611470403.03
2127099.0,1611470403.071
2126658.0,1611470403.111
2121494.0,1611470403.149
2115531.0,1611470403.189
2109690.0,1611470403.23
2104657.0,1611470403.27
2100473.0,1611470403.31
2095885.0,1611470403.351
2091545.0,1611470403.39
2085262.0,1611470403.431
2078083.0,1611470403.47
2073500.0,1611470403.509
2069599.0,1611470403.549
2067085.0,1611470403.591
2064952.0,1611470403.63
2064275.0,1611470403.671
2068777.0,1611470403.712
2077439.0,1611470403.749
2082933.0,1611470403.789
2087801.0,1611470403.831
2091729.0,1611470403.87
2094718.0,1611470403.91
2099218.0,1611470403.951
2101628.0,1611470403.991
2103859.0,1611470404.031
2106141.0,1611470404.071
2107683.0,1611470404.109
2109356.0,1611470404.15
2111165.0,1611470404.191
2112690.0,1611470404.231
2114572.0,1611470404.271
2116234.0,1611470404.312
2118260.0,1611470404.349
2120693.0,1611470404.39
2122878.0,1611470404.431
2123652.0,1611470404.471
2122366.0,1611470404.511
2120600.0,1611470404.552
2119320.0,1611470404.591
2118806.0,1611470404.632
2118772.0,1611470404.671
2119440.0,1611470404.71
2120305.0,1611470404.75
2121337.0,1611470404.791
2122331.0,1611470404.831
2124348.0,1611470404.871
2125981.0,1611470404.909
2127876.0,1611470404.949
2129864.0,1611470404.989
2131948.0,1611470405.031
2133757.0,1611470405.07
2133508.0,1611470405.11
2131581.0,1611470405.152
2129787.0,1611470405.191
2128780.0,1611470405.231
2128513.0,1611470405.273
2128601.0,1611470405.312
2129621.0,1611470405.35
2130368.0,1611470405.391
2131103.0,1611470405.431
2131924.0,1611470405.471
2133273.0,1611470405.512
2134522.0,1611470405.551
2136151.0,1611470405.592
2137840.0,1611470405.633
2139682.0,1611470405.671
2140112.0,1611470405.71
2138518.0,1611470405.752
2136318.0,1611470405.791
2134540.0,1611470405.832
2133548.0,1611470405.873
2132653.0,1611470405.912
2132479.0,1611470405.952
2132407.0,1611470405.991
2132810.0,1611470406.031
2133180.0,1611470406.072
2134028.0,1611470406.112
2135150.0,1611470406.151
2136582.0,1611470406.192
2137298.0,1611470406.233
2138010.0,1611470406.271
2135969.0,1611470406.311
2131837.0,1611470406.352
2124866.0,1611470406.391
2117328.0,1611470406.432
2109781.0,1611470406.474
2113900.0,1611470406.512
2116470.0,1611470406.553
2121446.0,1611470406.592
2124579.0,1611470406.631
2126681.0,1611470406.672
2131402.0,1611470406.712
2139495.0,1611470406.752
2147898.0,1611470406.792
2154569.0,1611470406.834
2159554.0,1611470406.873
2162257.0,1611470406.911
2164220.0,1611470406.952
2164588.0,1611470406.991
2163120.0,1611470407.032
2161019.0,1611470407.074
2159341.0,1611470407.112
2158023.0,1611470407.153
2157714.0,1611470407.192
2157850.0,1611470407.231
2158590.0,1611470407.272
2159050.0,1611470407.313
2159695.0,1611470407.352
2160542.0,1611470407.393
2161443.0,1611470407.434
2162482.0,1611470407.47
2164027.0,1611470407.511
2165534.0,1611470407.552
2166927.0,1611470407.591
2167212.0,1611470407.632
2165399.0,1611470407.674
2163027.0,1611470407.712
2161482.0,1611470407.752
2160339.0,1611470407.794
2159859.0,1611470407.833
2160287.0,1611470407.874
2160828.0,1611470407.912
2160968.0,1611470407.952
2161552.0,1611470407.992
2162228.0,1611470408.034
2163212.0,1611470408.073
2164067.0,1611470408.113
2165461.0,1611470408.154
2166752.0,1611470408.192
2167085.0,1611470408.232
2165396.0,1611470408.274
2163125.0,1611470408.312
2161700.0,1611470408.353
2161019.0,1611470408.394
2160604.0,1611470408.434
2160665.0,1611470408.474
2161295.0,1611470408.513
2161587.0,1611470408.552
2160388.0,1611470408.592
2159413.0,1611470408.634
2157978.0,1611470408.674
2156462.0,1611470408.713
2155077.0,1611470408.754
2154124.0,1611470408.794
2152924.0,1611470408.835
2150578.0,1611470408.877
2148296.0,1611470408.915
2145332.0,1611470408.955
2142955.0,1611470408.996
2140964.0,1611470409.036
2142200.0,1611470409.076
2146283.0,1611470409.117
2148787.0,1611470409.156
2150854.0,1611470409.196
2152406.0,1611470409.237
2155516.0,1611470409.277
2160807.0,1611470409.317
2167790.0,1611470409.358
2175678.0,1611470409.398
2181807.0,1611470409.438
2185310.0,1611470409.48
2186213.0,1611470409.516
2186412.0,1611470409.557
2187024.0,1611470409.598
2186553.0,1611470409.637
2187203.0,1611470409.678
2189565.0,1611470409.719
2192140.0,1611470409.758
2194205.0,1611470409.799
2196212.0,1611470409.838
2198627.0,1611470409.878
2200490.0,1611470409.917
2202608.0,1611470409.959
2204264.0,1611470409.997
2204837.0,1611470410.036
2203644.0,1611470410.078
2200979.0,1611470410.117
2198831.0,1611470410.157
2197267.0,1611470410.198
2196548.0,1611470410.237
2196444.0,1611470410.278
2196756.0,1611470410.319
2197110.0,1611470410.358
2197724.0,1611470410.399
2198202.0,1611470410.44
2198979.0,1611470410.478
2200031.0,1611470410.517
2201337.0,1611470410.558
2202474.0,1611470410.598
2202697.0,1611470410.638
2201391.0,1611470410.68
2198529.0,1611470410.719
2196459.0,1611470410.759
2195034.0,1611470410.798
2194434.0,1611470410.837
2194263.0,1611470410.878
2194653.0,1611470410.958
2194694.0,1611470410.919
2194902.0,1611470410.999
2194413.0,1611470411.08
2194526.0,1611470411.04
2194321.0,1611470411.118
2194859.0,1611470411.159
2195678.0,1611470411.198
2195656.0,1611470411.238
2194644.0,1611470411.28
2192381.0,1611470411.319
2188706.0,1611470411.359
2183364.0,1611470411.399
2184364.0,1611470411.438
2185274.0,1611470411.479
2186447.0,1611470411.519
2185749.0,1611470411.559
2185977.0,1611470411.599
2188569.0,1611470411.64
2192643.0,1611470411.68
2196999.0,1611470411.718
2201836.0,1611470411.759
2205646.0,1611470411.798
2206023.0,1611470411.839
2205035.0,1611470411.881
2205019.0,1611470411.919
2205486.0,1611470411.959
2205934.0,1611470412.001
2208283.0,1611470412.038
2209950.0,1611470412.079
2211564.0,1611470412.12
2212352.0,1611470412.159
2213346.0,1611470412.199
2214310.0,1611470412.241
2215157.0,1611470412.28
2216211.0,1611470412.318
2216652.0,1611470412.359
2214988.0,1611470412.399
2212011.0,1611470412.439
2209010.0,1611470412.481
2206836.0,1611470412.519
2205388.0,1611470412.559
2204743.0,1611470412.597
2204723.0,1611470412.638
2204717.0,1611470412.679
2204640.0,1611470412.719
2204584.0,1611470412.758
2204967.0,1611470412.799
2205734.0,1611470412.84
2206565.0,1611470412.88
2206469.0,1611470412.92
2203862.0,1611470412.961
2200909.0,1611470413.0
2198028.0,1611470413.039
2196300.0,1611470413.08
2195171.0,1611470413.119
2195336.0,1611470413.16
2195306.0,1611470413.201
2195456.0,1611470413.24
2194932.0,1611470413.281
2194704.0,1611470413.322
2195073.0,1611470413.359
2195617.0,1611470413.399
2196565.0,1611470413.44
2196541.0,1611470413.48
2194731.0,1611470413.52
2191370.0,1611470413.561
2187974.0,1611470413.6
2185969.0,1611470413.641
2182312.0,1611470413.681
2178628.0,1611470413.719
2177493.0,1611470413.76
2180071.0,1611470413.801
2185227.0,1611470413.84
2186296.0,1611470413.881
2186246.0,1611470413.922
2188079.0,1611470413.961
2191296.0,1611470413.999
2195371.0,1611470414.041
2198367.0,1611470414.08
2197424.0,1611470414.12
2194858.0,1611470414.161
2191893.0,1611470414.201
2189536.0,1611470414.241
2188616.0,1611470414.281
2188077.0,1611470414.319
2187821.0,1611470414.36
2187823.0,1611470414.401
2187356.0,1611470414.441
2187901.0,1611470414.481
2187839.0,1611470414.522
2188531.0,1611470414.561
2189511.0,1611470414.6
2190491.0,1611470414.641
2190296.0,1611470414.681
2187488.0,1611470414.72
2184173.0,1611470414.762
2181202.0,1611470414.801
2178970.0,1611470414.842
2177721.0,1611470414.881
2176988.0,1611470414.92
2176365.0,1611470414.96
2176185.0,1611470415.002
2175584.0,1611470415.041
2175611.0,1611470415.082
2175738.0,1611470415.126
2176388.0,1611470415.159
2177414.0,1611470415.2
2177923.0,1611470415.241
2176379.0,1611470415.281
2173100.0,1611470415.32
2169882.0,1611470415.362
2167846.0,1611470415.401
2166075.0,1611470415.442
2165472.0,1611470415.483
2165249.0,1611470415.522
2164946.0,1611470415.56
2164681.0,1611470415.601
2164929.0,1611470415.641
2165061.0,1611470415.682
2165315.0,1611470415.722
2166126.0,1611470415.761
2166570.0,1611470415.802
2165327.0,1611470415.843
2162151.0,1611470415.881
2157838.0,1611470415.921
2153410.0,1611470415.962
2147164.0,1611470416.001
2137345.0,1611470416.042
2127516.0,1611470416.083
2120051.0,1611470416.122
2112919.0,1611470416.16
2106566.0,1611470416.202
2101397.0,1611470416.241
2097286.0,1611470416.282
2093927.0,1611470416.323
2091778.0,1611470416.362
2090646.0,1611470416.402
2091456.0,1611470416.444
2094816.0,1611470416.481
2099478.0,1611470416.521
2101845.0,1611470416.562
2102740.0,1611470416.601
2102593.0,1611470416.642
2103164.0,1611470416.684
2104178.0,1611470416.722
2105539.0,1611470416.763
2106605.0,1611470416.802
2107622.0,1611470416.841
2109163.0,1611470416.882
2110715.0,1611470416.923
2112389.0,1611470416.962
2114862.0,1611470417.002
2117047.0,1611470417.044
2119243.0,1611470417.083
2120096.0,1611470417.121
2118197.0,1611470417.162
2115172.0,1611470417.202
2112868.0,1611470417.242
2111106.0,1611470417.284
2110083.0,1611470417.322
2109935.0,1611470417.363
2110254.0,1611470417.402
2110755.0,1611470417.442
2111172.0,1611470417.482
2112129.0,1611470417.523
2113373.0,1611470417.562
2114606.0,1611470417.603
2116068.0,1611470417.644
2117465.0,1611470417.683
2119564.0,1611470417.723
2120465.0,1611470417.762
2118908.0,1611470417.802
2115685.0,1611470417.842
2113087.0,1611470417.884
2111795.0,1611470417.922
2110353.0,1611470417.963
2110184.0,1611470418.004
2110727.0,1611470418.044
2111022.0,1611470418.082
2111509.0,1611470418.123
2111958.0,1611470418.162
2112753.0,1611470418.203
2113665.0,1611470418.244
2111731.0,1611470418.284
2107600.0,1611470418.324
2103364.0,1611470418.363
2097415.0,1611470418.402
2090614.0,1611470418.443
2084404.0,1611470418.484
2079418.0,1611470418.523
2076294.0,1611470418.563
2071279.0,1611470418.604
2065240.0,1611470418.644
2058684.0,1611470418.683
2053984.0,1611470418.723
2051763.0,1611470418.762
2054772.0,1611470418.803
2054526.0,1611470418.844
2053722.0,1611470418.884
2054932.0,1611470418.924
2058219.0,1611470418.965
2065067.0,1611470419.002
2073364.0,1611470419.043
2079193.0,1611470419.084
2082366.0,1611470419.123
2084288.0,1611470419.163
2087144.0,1611470419.205
2089618.0,1611470419.244
2092245.0,1611470419.283
2094412.0,1611470419.323
2096303.0,1611470419.363
2098434.0,1611470419.403
2100643.0,1611470419.445
2103117.0,1611470419.484
2105556.0,1611470419.524
2106849.0,1611470419.565
2106262.0,1611470419.602
2103678.0,1611470419.643
2101134.0,1611470419.685
2099811.0,1611470419.723
2099133.0,1611470419.764
2099034.0,1611470419.805
2099550.0,1611470419.844
2100243.0,1611470419.885
2101064.0,1611470419.924
2102125.0,1611470419.963
2103713.0,1611470420.003
2105116.0,1611470420.045
2109166.0,1611470420.124
2106871.0,1611470420.084
2110493.0,1611470420.166
2107806.0,1611470420.242
2104734.0,1611470420.323
2106002.0,1611470420.284
2110016.0,1611470420.203
2104219.0,1611470420.363
2104326.0,1611470420.405
2105186.0,1611470420.444
2106366.0,1611470420.485
2107178.0,1611470420.526
2108022.0,1611470420.565
2109349.0,1611470420.603
2110778.0,1611470420.645
2112840.0,1611470420.684
2114776.0,1611470420.724
2113556.0,1611470420.804
2115194.0,1611470420.765
2105426.0,1611470420.847
2097691.0,1611470420.888
2091033.0,1611470420.927
2085240.0,1611470420.967
2080657.0,1611470421.008
2077183.0,1611470421.047
2076090.0,1611470421.088
2076123.0,1611470421.128
2077410.0,1611470421.167
2080414.0,1611470421.207
2083917.0,1611470421.249
2087749.0,1611470421.288
2090884.0,1611470421.329
2093511.0,1611470421.367
2093326.0,1611470421.407
2092883.0,1611470421.447
2094172.0,1611470421.489
2095870.0,1611470421.527
2099038.0,1611470421.568
2103083.0,1611470421.609
2106635.0,1611470421.649
2111816.0,1611470421.687
2117538.0,1611470421.728
2123582.0,1611470421.767
2129848.0,1611470421.808
2135625.0,1611470421.849
2138712.0,1611470421.889
2139133.0,1611470421.928
2137655.0,1611470421.97
2136497.0,1611470422.007
2135842.0,1611470422.047
2136346.0,1611470422.089
2137288.0,1611470422.128
2138887.0,1611470422.168
2139909.0,1611470422.21
2141268.0,1611470422.249
2142597.0,1611470422.288
2144445.0,1611470422.328
2146162.0,1611470422.367
2148135.0,1611470422.408
2149998.0,1611470422.449
2150789.0,1611470422.489
2149337.0,1611470422.529
2147799.0,1611470422.57
2147109.0,1611470422.607
2147103.0,1611470422.648
2147349.0,1611470422.689
2148269.0,1611470422.728
2148902.0,1611470422.768
2149734.0,1611470422.809
2150422.0,1611470422.846
2151388.0,1611470422.887
2152426.0,1611470422.928
2153971.0,1611470422.967
2155094.0,1611470423.008
2154882.0,1611470423.049
2153091.0,1611470423.089
2151536.0,1611470423.129
2150533.0,1611470423.17
2150445.0,1611470423.209
2150725.0,1611470423.25
2151636.0,1611470423.289
2152454.0,1611470423.328
2153008.0,1611470423.368
2153743.0,1611470423.409
2154744.0,1611470423.449
2156095.0,1611470423.49
2157706.0,1611470423.53
2159063.0,1611470423.569
2158840.0,1611470423.608
2157379.0,1611470423.649
2155650.0,1611470423.689
2154982.0,1611470423.729
2155163.0,1611470423.77
2155534.0,1611470423.809
2156420.0,1611470423.849
2157200.0,1611470423.891
2158145.0,1611470423.93
2158973.0,1611470423.968
2159948.0,1611470424.009
2161296.0,1611470424.048
2162995.0,1611470424.089
2163864.0,1611470424.13
2163850.0,1611470424.169
2161722.0,1611470424.21
2160248.0,1611470424.251
2159030.0,1611470424.289
2158649.0,1611470424.328
2158882.0,1611470424.37
2159630.0,1611470424.409
2160326.0,1611470424.449
2160713.0,1611470424.491
2161567.0,1611470424.53
2162486.0,1611470424.57
2163458.0,1611470424.609
2164688.0,1611470424.649
2166197.0,1611470424.69
2166972.0,1611470424.73
2166268.0,1611470424.769
2164209.0,1611470424.81
2162586.0,1611470424.851
2161326.0,1611470424.891
2160857.0,1611470424.929
2160724.0,1611470424.97
2161703.0,1611470425.009
2162266.0,1611470425.049
2162734.0,1611470425.091
2163505.0,1611470425.13
2164442.0,1611470425.17
2165553.0,1611470425.21
2166739.0,1611470425.249
2168131.0,1611470425.29
2169480.0,1611470425.331
2169402.0,1611470425.369
2167651.0,1611470425.408
2165401.0,1611470425.449
2164029.0,1611470425.489
2163468.0,1611470425.529
2163096.0,1611470425.57
2163325.0,1611470425.609
2163743.0,1611470425.65
2164398.0,1611470425.692
2164859.0,1611470425.73
2165759.0,1611470425.771
2166350.0,1611470425.812
2167632.0,1611470425.849
2168560.0,1611470425.89
2170000.0,1611470425.931
2170806.0,1611470425.97
2169969.0,1611470426.01
2167978.0,1611470426.052
2166246.0,1611470426.091
2164809.0,1611470426.131
2163919.0,1611470426.17
2164661.0,1611470426.21
2166074.0,1611470426.25
2168397.0,1611470426.292
2170641.0,1611470426.33
2172912.0,1611470426.371
2174641.0,1611470426.412
2176097.0,1611470426.451
2177863.0,1611470426.49
2179325.0,1611470426.531
2180532.0,1611470426.57
2180429.0,1611470426.61
2178335.0,1611470426.652
2177215.0,1611470426.692
2176340.0,1611470426.731
2176181.0,1611470426.773
2176614.0,1611470426.81
2177429.0,1611470426.85
2178179.0,1611470426.892
2178896.0,1611470426.93
2179688.0,1611470426.971
2180679.0,1611470427.012
2181683.0,1611470427.052
2183098.0,1611470427.092
2184402.0,1611470427.131
2185811.0,1611470427.17
2185053.0,1611470427.211
2182978.0,1611470427.252
2180971.0,1611470427.292
2179931.0,1611470427.331
2179198.0,1611470427.373
2179049.0,1611470427.41
2179436.0,1611470427.451
2180094.0,1611470427.492
2180297.0,1611470427.531
2181042.0,1611470427.571
2181659.0,1611470427.613
2182649.0,1611470427.652
2183813.0,1611470427.693
2185068.0,1611470427.731
2186091.0,1611470427.77
2187371.0,1611470427.811
2187079.0,1611470427.852
2184853.0,1611470427.892
2182511.0,1611470427.928
2180626.0,1611470427.97
2179508.0,1611470428.01
2178416.0,1611470428.05
2178811.0,1611470428.092
2178695.0,1611470428.131
2179063.0,1611470428.171
2179244.0,1611470428.212
2179555.0,1611470428.252
2180193.0,1611470428.293
2181409.0,1611470428.333
2182083.0,1611470428.37
2183356.0,1611470428.411
2184260.0,1611470428.452
2183916.0,1611470428.492
2181734.0,1611470428.532
2179475.0,1611470428.573
2177945.0,1611470428.612
2176936.0,1611470428.653
2176488.0,1611470428.692
2176765.0,1611470428.731
2177396.0,1611470428.771
2178093.0,1611470428.813
2178704.0,1611470428.852
2179401.0,1611470428.893
2180378.0,1611470428.933
2181773.0,1611470428.973
2183047.0,1611470429.011
2184359.0,1611470429.053
2184802.0,1611470429.092
2180408.0,1611470429.132
2170438.0,1611470429.173
2163298.0,1611470429.213
2157146.0,1611470429.253
2153274.0,1611470429.293
2150443.0,1611470429.331
2149635.0,1611470429.372
2149388.0,1611470429.413
2149216.0,1611470429.452
2149457.0,1611470429.493
2156485.0,1611470429.534
2159705.0,1611470429.573
2159194.0,1611470429.611
2162384.0,1611470429.653
2166613.0,1611470429.692
2171632.0,1611470429.732
2174942.0,1611470429.773
2175292.0,1611470429.813
2174764.0,1611470429.853
2174794.0,1611470429.895
2175247.0,1611470429.933
2176312.0,1611470429.972
2177049.0,1611470430.013
2178053.0,1611470430.052
2178754.0,1611470430.093
2179921.0,1611470430.134
2180888.0,1611470430.173
2182317.0,1611470430.213
2183760.0,1611470430.255
2185381.0,1611470430.292
2186183.0,1611470430.332
2185069.0,1611470430.373
2182456.0,1611470430.412
2180964.0,1611470430.457
2180142.0,1611470430.494
2180233.0,1611470430.531
2181142.0,1611470430.571
2181856.0,1611470430.613
2182481.0,1611470430.652
2183500.0,1611470430.693
2184392.0,1611470430.733
2185530.0,1611470430.773
2186327.0,1611470430.813
2187399.0,1611470430.854
2188895.0,1611470430.894
2189587.0,1611470430.934
2189403.0,1611470430.975
2186998.0,1611470431.012
2184148.0,1611470431.053
2181952.0,1611470431.094
2180529.0,1611470431.133
2179879.0,1611470431.173
2179546.0,1611470431.215
2179914.0,1611470431.254
2180191.0,1611470431.295
2180277.0,1611470431.333
2181116.0,1611470431.372
2181840.0,1611470431.413
2183011.0,1611470431.454
2184267.0,1611470431.494
2185512.0,1611470431.534
2185950.0,1611470431.575
2184044.0,1611470431.614
2181533.0,1611470431.653
2179219.0,1611470431.694
2178064.0,1611470431.733
2176914.0,1611470431.773
2176787.0,1611470431.815
2177175.0,1611470431.854
2177418.0,1611470431.895
2177845.0,1611470431.935
2178077.0,1611470431.973
2178867.0,1611470432.013
2179929.0,1611470432.055
2180692.0,1611470432.094
2182002.0,1611470432.134
2183559.0,1611470432.175
2182272.0,1611470432.214
2179490.0,1611470432.255
2176290.0,1611470432.295
2173841.0,1611470432.333
2172136.0,1611470432.373
2170822.0,1611470432.415
2170196.0,1611470432.454
2169669.0,1611470432.495
2168744.0,1611470432.536
2167968.0,1611470432.575
2167611.0,1611470432.613
2167617.0,1611470432.655
2167771.0,1611470432.694
2168097.0,1611470432.734
2168306.0,1611470432.775
2166904.0,1611470432.814
2163432.0,1611470432.847
2159669.0,1611470432.888
2156820.0,1611470432.927
2154737.0,1611470432.967
2153430.0,1611470433.008
2152766.0,1611470433.047
2152336.0,1611470433.088
2152017.0,1611470433.128
2151353.0,1611470433.167
2151246.0,1611470433.207
2151391.0,1611470433.249
2151883.0,1611470433.289
2152799.0,1611470433.327
2152724.0,1611470433.368
2150713.0,1611470433.407
2147272.0,1611470433.448
2144074.0,1611470433.489
2141905.0,1611470433.528
2140230.0,1611470433.568
2139389.0,1611470433.609
2139323.0,1611470433.647
2139137.0,1611470433.688
2139125.0,1611470433.728
2138919.0,1611470433.767
2138890.0,1611470433.808
2138545.0,1611470433.849
2136363.0,1611470433.889
2135701.0,1611470433.929
2134964.0,1611470433.968
2132655.0,1611470434.007
2129393.0,1611470434.048
2125780.0,1611470434.089
2121487.0,1611470434.128
2116206.0,1611470434.168
2109034.0,1611470434.21
2103132.0,1611470434.249
2098756.0,1611470434.288
2099499.0,1611470434.328
2102804.0,1611470434.367
2103890.0,1611470434.408
2106979.0,1611470434.449
2113348.0,1611470434.489
2120283.0,1611470434.529
2126686.0,1611470434.57
2130485.0,1611470434.607
2131604.0,1611470434.648
2130080.0,1611470434.689
2127463.0,1611470434.728
2125243.0,1611470434.768
2123473.0,1611470434.81
2122380.0,1611470434.849
2121933.0,1611470434.89
2122119.0,1611470434.928
2122298.0,1611470434.968
2122130.0,1611470435.008
2122552.0,1611470435.05
2123085.0,1611470435.089
2124297.0,1611470435.129
2125288.0,1611470435.17
2126842.0,1611470435.21
2128083.0,1611470435.248
2129594.0,1611470435.29
2129132.0,1611470435.328
2126542.0,1611470435.369
2123203.0,1611470435.41
2120433.0,1611470435.449
2118489.0,1611470435.49
2117366.0,1611470435.531
2116901.0,1611470435.568
2116831.0,1611470435.607
2117124.0,1611470435.648
2117351.0,1611470435.688
2117697.0,1611470435.728
2118444.0,1611470435.769
2119357.0,1611470435.809
2120855.0,1611470435.849
2122167.0,1611470435.891
2123614.0,1611470435.929
2123775.0,1611470435.97
2121904.0,1611470436.011
2119095.0,1611470436.048
2117200.0,1611470436.089
2115767.0,1611470436.13
2115165.0,1611470436.169
2115079.0,1611470436.21
2115235.0,1611470436.251
2115552.0,1611470436.291
2116027.0,1611470436.328
2116553.0,1611470436.37
2117595.0,1611470436.409
2118655.0,1611470436.449
2120201.0,1611470436.491
2121817.0,1611470436.53
2122751.0,1611470436.57
2120898.0,1611470436.611
2117903.0,1611470436.649
2115724.0,1611470436.689
2111485.0,1611470436.73
2106672.0,1611470436.769
2102301.0,1611470436.81
2097802.0,1611470436.851
2099859.0,1611470436.891
2104107.0,1611470436.931
2109927.0,1611470436.97
2115055.0,1611470437.009
2118321.0,1611470437.05
2122594.0,1611470437.091
2129598.0,1611470437.13
2137559.0,1611470437.17
2143296.0,1611470437.211
2144658.0,1611470437.251
2146013.0,1611470437.29
2147244.0,1611470437.33
2149139.0,1611470437.369
2150729.0,1611470437.41
2151584.0,1611470437.451
2152412.0,1611470437.491
2152788.0,1611470437.531
2152449.0,1611470437.572
2152237.0,1611470437.609
2152407.0,1611470437.65
2153049.0,1611470437.691
2153945.0,1611470437.73
2155179.0,1611470437.77
2155975.0,1611470437.811
2155551.0,1611470437.851
2152806.0,1611470437.892
2148965.0,1611470437.93
2146349.0,1611470437.969
2144316.0,1611470438.01
2143035.0,1611470438.051
2142402.0,1611470438.091
2142668.0,1611470438.131
2142958.0,1611470438.171
2142784.0,1611470438.207
2142744.0,1611470438.248
2142084.0,1611470438.289
2142046.0,1611470438.328
2142624.0,1611470438.369
2142870.0,1611470438.41
2143592.0,1611470438.45
2143075.0,1611470438.491
2140064.0,1611470438.531
2137062.0,1611470438.57
2134557.0,1611470438.611
2132238.0,1611470438.652
2131064.0,1611470438.692
2130656.0,1611470438.732
2130823.0,1611470438.771
2130618.0,1611470438.81
2130753.0,1611470438.85
2131449.0,1611470438.892
2131922.0,1611470438.931
2132728.0,1611470438.971
2133789.0,1611470439.012
2134783.0,1611470439.052
2135412.0,1611470439.093
2134174.0,1611470439.131
2131139.0,1611470439.17
2128863.0,1611470439.211
2126986.0,1611470439.252
2126018.0,1611470439.292
2125523.0,1611470439.332
2125662.0,1611470439.373
2125837.0,1611470439.412
2126371.0,1611470439.45
2126710.0,1611470439.492
2127228.0,1611470439.531
2128205.0,1611470439.571
2129187.0,1611470439.612
2130417.0,1611470439.652
2131445.0,1611470439.693
2130874.0,1611470439.733
2128237.0,1611470439.77
2125782.0,1611470439.811
2124542.0,1611470439.852
2123886.0,1611470439.892
2123936.0,1611470439.931
2123885.0,1611470439.973
2124382.0,1611470440.012
2123099.0,1611470440.053
2123729.0,1611470440.092
2122709.0,1611470440.131
2120541.0,1611470440.171
2118129.0,1611470440.212
2116894.0,1611470440.252
2117241.0,1611470440.293
2119545.0,1611470440.333
2121918.0,1611470440.373
2122932.0,1611470440.411
2124130.0,1611470440.452
2125404.0,1611470440.492
2125793.0,1611470440.532
2125835.0,1611470440.573
2126171.0,1611470440.612
2127060.0,1611470440.653
2127950.0,1611470440.694
2128480.0,1611470440.73
2129466.0,1611470440.771
2130169.0,1611470440.812
2131073.0,1611470440.852
2132285.0,1611470440.892
2133703.0,1611470440.933
2134978.0,1611470440.972
2136398.0,1611470441.013
2137246.0,1611470441.054
2136092.0,1611470441.092
2133457.0,1611470441.132
2131483.0,1611470441.173
2130078.0,1611470441.212
2129176.0,1611470441.253
2128532.0,1611470441.294
2129079.0,1611470441.333
2129565.0,1611470441.373
2130051.0,1611470441.412
2130682.0,1611470441.452
2131817.0,1611470441.493
2132720.0,1611470441.533
2134212.0,1611470441.572
2135392.0,1611470441.613
2136909.0,1611470441.654
2138791.0,1611470441.694
2140203.0,1611470441.731
2141308.0,1611470441.773
2140165.0,1611470441.812
2138450.0,1611470441.853
2137020.0,1611470441.894
2136070.0,1611470441.933
2135595.0,1611470441.973
2135808.0,1611470442.014
2136265.0,1611470442.054
2137186.0,1611470442.092
2137807.0,1611470442.133
2138805.0,1611470442.172
2139836.0,1611470442.213
2141198.0,1611470442.254
2142728.0,1611470442.294
2144309.0,1611470442.334
2146053.0,1611470442.373
2147888.0,1611470442.412
2149664.0,1611470442.453
2150474.0,1611470442.494
2149345.0,1611470442.533
2147557.0,1611470442.573
2146526.0,1611470442.614
2145960.0,1611470442.654
2146435.0,1611470442.733
2145667.0,1611470442.695
2146884.0,1611470442.772
2148296.0,1611470442.854
2147552.0,1611470442.813
2149339.0,1611470442.894
2150406.0,1611470442.933
2151657.0,1611470442.975
2153017.0,1611470443.014
2154520.0,1611470443.055
2156477.0,1611470443.094
2157350.0,1611470443.133
2157224.0,1611470443.173
2155474.0,1611470443.214
2154036.0,1611470443.254
2153285.0,1611470443.293
2152839.0,1611470443.332
2153139.0,1611470443.372
2153819.0,1611470443.412
2154571.0,1611470443.454
2154747.0,1611470443.493
2155536.0,1611470443.533
2156300.0,1611470443.574
2157380.0,1611470443.613
2158495.0,1611470443.654
2160173.0,1611470443.696
2161388.0,1611470443.734
2162155.0,1611470443.775
2161191.0,1611470443.814
2159219.0,1611470443.853
2157265.0,1611470443.894
2156236.0,1611470443.935
2155789.0,1611470443.974
2155972.0,1611470444.014
2156315.0,1611470444.056
2156966.0,1611470444.095
2157513.0,1611470444.133
2158077.0,1611470444.174
2158668.0,1611470444.214
2159561.0,1611470444.254
2161043.0,1611470444.296
2161789.0,1611470444.334
2163461.0,1611470444.375
2164053.0,1611470444.416
2162974.0,1611470444.453
2160825.0,1611470444.494
2159187.0,1611470444.535
2158039.0,1611470444.574
2157617.0,1611470444.614
2157710.0,1611470444.656
2157827.0,1611470444.695
2157964.0,1611470444.735
2158430.0,1611470444.774
2157911.0,1611470444.814
2159088.0,1611470444.855
2158877.0,1611470444.897
2156852.0,1611470444.935
2155348.0,1611470444.975
2153760.0,1611470445.016
2150685.0,1611470445.055
2146207.0,1611470445.096
2141291.0,1611470445.136
2138781.0,1611470445.175
2138280.0,1611470445.216
2140013.0,1611470445.257
2143804.0,1611470445.296
2148003.0,1611470445.335
2151649.0,1611470445.376
2154368.0,1611470445.415
2157132.0,1611470445.456
2159634.0,1611470445.498
2161853.0,1611470445.536
2164384.0,1611470445.576
2166145.0,1611470445.618
2167877.0,1611470445.657
2167952.0,1611470445.698
2166380.0,1611470445.739
2164321.0,1611470445.778
2162897.0,1611470445.816
2162268.0,1611470445.859
2162187.0,1611470445.896
2162700.0,1611470445.936
2162998.0,1611470445.977
2163607.0,1611470446.016
2164224.0,1611470446.057
2165152.0,1611470446.098
2166024.0,1611470446.137
2166916.0,1611470446.177
2168434.0,1611470446.219
2169912.0,1611470446.258
2170722.0,1611470446.297
2169705.0,1611470446.337
2167629.0,1611470446.377
2166260.0,1611470446.417
2165361.0,1611470446.459
2164655.0,1611470446.498
2165005.0,1611470446.538
2165382.0,1611470446.579
2165994.0,1611470446.616
2166465.0,1611470446.657
2166781.0,1611470446.699
2167815.0,1611470446.737
2168968.0,1611470446.777
2170422.0,1611470446.819
2171323.0,1611470446.858
2171382.0,1611470446.899
2169683.0,1611470446.94
2167769.0,1611470446.977
2166486.0,1611470447.017
2166172.0,1611470447.059
2166397.0,1611470447.098
2166793.0,1611470447.138
2167370.0,1611470447.179
2167666.0,1611470447.218
2168187.0,1611470447.259
2168806.0,1611470447.299
2169784.0,1611470447.337
2171071.0,1611470447.377
2172132.0,1611470447.419
2172430.0,1611470447.458
2171050.0,1611470447.499
2168551.0,1611470447.539
2167162.0,1611470447.579
2165797.0,1611470447.619
2165300.0,1611470447.658
2165093.0,1611470447.698
2165653.0,1611470447.738
2166051.0,1611470447.779
2166718.0,1611470447.818
2167119.0,1611470447.858
2168315.0,1611470447.9
2169355.0,1611470447.939
2170685.0,1611470447.979
2171948.0,1611470448.018
2172751.0,1611470448.057
2171325.0,1611470448.098
2168990.0,1611470448.139
2167309.0,1611470448.178
2164949.0,1611470448.219
2162967.0,1611470448.26
2157546.0,1611470448.3
2151954.0,1611470448.337
2146482.0,1611470448.379
2140759.0,1611470448.417
2134835.0,1611470448.458
2131052.0,1611470448.5
2129645.0,1611470448.538
2129751.0,1611470448.579
2130137.0,1611470448.62
2130043.0,1611470448.659
2129769.0,1611470448.698
2128479.0,1611470448.739
2126878.0,1611470448.778
2128416.0,1611470448.818
2130596.0,1611470448.86
2133597.0,1611470448.9
2137223.0,1611470448.939
2140304.0,1611470448.98
2143215.0,1611470449.02
2145519.0,1611470449.058
2147346.0,1611470449.1
2149743.0,1611470449.138
2152399.0,1611470449.179
2155053.0,1611470449.22
2157401.0,1611470449.259
2160151.0,1611470449.3
2162276.0,1611470449.341
2164144.0,1611470449.378
2165529.0,1611470449.418
2165709.0,1611470449.46
2162726.0,1611470449.499
2159913.0,1611470449.539
2157156.0,1611470449.58
2154717.0,1611470449.62
2153603.0,1611470449.66
2153948.0,1611470449.7
2156167.0,1611470449.738
2159671.0,1611470449.82
2157871.0,1611470449.779
2163555.0,1611470449.9
2161534.0,1611470449.859
2165032.0,1611470449.941
2166663.0,1611470449.98
2168711.0,1611470450.02
2170507.0,1611470450.059
2172795.0,1611470450.099
2174453.0,1611470450.139
2174662.0,1611470450.18
2173399.0,1611470450.22
2172164.0,1611470450.26
2171547.0,1611470450.302
2171097.0,1611470450.34
2171094.0,1611470450.379
2171665.0,1611470450.42
2172670.0,1611470450.459
2173065.0,1611470450.5
2173700.0,1611470450.541
2174292.0,1611470450.58
2176115.0,1611470450.62
2177528.0,1611470450.662
2179130.0,1611470450.699
2181062.0,1611470450.739
2182554.0,1611470450.78
2182808.0,1611470450.82
2181297.0,1611470450.86
2178029.0,1611470450.902
2173146.0,1611470450.94
2168845.0,1611470450.977
2163909.0,1611470451.019
2159606.0,1611470451.059
2156011.0,1611470451.099
2153207.0,1611470451.14
2151665.0,1611470451.179
2151622.0,1611470451.22
2154234.0,1611470451.261
2158803.0,1611470451.301
2164569.0,1611470451.341
2168451.0,1611470451.382
2171762.0,1611470451.421
2173908.0,1611470451.46
2173876.0,1611470451.501
2172459.0,1611470451.54
2171191.0,1611470451.58
2170245.0,1611470451.621
2169857.0,1611470451.661
2169809.0,1611470451.702
2170656.0,1611470451.742
2171192.0,1611470451.779
2171628.0,1611470451.82
2172296.0,1611470451.861
2172961.0,1611470451.901
2173990.0,1611470451.941
2175132.0,1611470451.982
2176398.0,1611470452.021
2177693.0,1611470452.062
2179461.0,1611470452.103
2180668.0,1611470452.14
2180560.0,1611470452.18
2178456.0,1611470452.221
2175834.0,1611470452.261
2174029.0,1611470452.302
2172508.0,1611470452.342
2171785.0,1611470452.381
2171527.0,1611470452.422
2171553.0,1611470452.461
2171890.0,1611470452.501
2172154.0,1611470452.54
2172675.0,1611470452.582
2173361.0,1611470452.621
2174244.0,1611470452.662
2175440.0,1611470452.703
2176714.0,1611470452.742
2178118.0,1611470452.78
2179747.0,1611470452.821
2180421.0,1611470452.861
2179693.0,1611470452.902
2177487.0,1611470452.942
2175434.0,1611470452.981
2173924.0,1611470453.022
2172844.0,1611470453.063
2172464.0,1611470453.101
2172595.0,1611470453.141
2172668.0,1611470453.182
2173456.0,1611470453.221
2173886.0,1611470453.262
2175393.0,1611470453.303
2175932.0,1611470453.342
2175647.0,1611470453.382
2174089.0,1611470453.421
2174357.0,1611470453.461
2175323.0,1611470453.502
2177091.0,1611470453.541
2179004.0,1611470453.58
2180124.0,1611470453.62
2180406.0,1611470453.663
2180968.0,1611470453.702
2182219.0,1611470453.742
2182561.0,1611470453.783
2183782.0,1611470453.822
2184649.0,1611470453.861
2185871.0,1611470453.903
2186578.0,1611470453.941
2187792.0,1611470453.982
2188664.0,1611470454.023
2189939.0,1611470454.062
2191151.0,1611470454.103
2192847.0,1611470454.144
2194373.0,1611470454.181
2195587.0,1611470454.221
2195647.0,1611470454.263
2194288.0,1611470454.302
2192355.0,1611470454.342
2190675.0,1611470454.383
2189908.0,1611470454.423
2189651.0,1611470454.463
2190055.0,1611470454.503
2190717.0,1611470454.541
2191489.0,1611470454.582
2192309.0,1611470454.623
2193762.0,1611470454.662
2195114.0,1611470454.703
2196872.0,1611470454.744
2198670.0,1611470454.783
2200409.0,1611470454.823
2201890.0,1611470454.863
2201819.0,1611470454.902
2200399.0,1611470454.942
2198345.0,1611470454.983
2197487.0,1611470455.022
2196627.0,1611470455.063
2196389.0,1611470455.105
2196644.0,1611470455.143
2197173.0,1611470455.182
2197143.0,1611470455.223
2197736.0,1611470455.262
2198135.0,1611470455.303
2198983.0,1611470455.344
2199766.0,1611470455.383
2200920.0,1611470455.423
2201967.0,1611470455.465
2202978.0,1611470455.502
2202297.0,1611470455.542
2199996.0,1611470455.583
2196853.0,1611470455.622
2194467.0,1611470455.663
2190916.0,1611470455.705
2185978.0,1611470455.743
2181712.0,1611470455.784
2177788.0,1611470455.825
2175267.0,1611470455.862
2173360.0,1611470455.903
2172271.0,1611470455.944
2172428.0,1611470455.983
2173631.0,1611470456.023
2176368.0,1611470456.065
2180741.0,1611470456.101
2185210.0,1611470456.14
2186503.0,1611470456.181
2186115.0,1611470456.221
2184947.0,1611470456.262
2183789.0,1611470456.304
2183033.0,1611470456.342
2182605.0,1611470456.383
2182673.0,1611470456.424
2183028.0,1611470456.463
2183286.0,1611470456.504
2183740.0,1611470456.545
2184196.0,1611470456.584
2185087.0,1611470456.624
2185969.0,1611470456.664
2187239.0,1611470456.703
2188562.0,1611470456.743
2189537.0,1611470456.784
2189981.0,1611470456.824
2188424.0,1611470456.867
2185864.0,1611470456.909
2183548.0,1611470456.947
2181985.0,1611470456.987
2180876.0,1611470457.028
2180636.0,1611470457.067
2180764.0,1611470457.108
2181016.0,1611470457.148
2180852.0,1611470457.187
2181185.0,1611470457.227
2182029.0,1611470457.269
2182578.0,1611470457.308
2183593.0,1611470457.349
2184738.0,1611470457.39
2185484.0,1611470457.427
2184991.0,1611470457.467
2182671.0,1611470457.509
2180269.0,1611470457.548
2178657.0,1611470457.588
2177617.0,1611470457.629
2177107.0,1611470457.669
2176972.0,1611470457.71
2177019.0,1611470457.748
2176641.0,1611470457.787
2177190.0,1611470457.828
2178273.0,1611470457.869
2179967.0,1611470457.909
2181290.0,1611470457.948
2183105.0,1611470457.99
2183655.0,1611470458.029
2182807.0,1611470458.07
2180359.0,1611470458.109
2178576.0,1611470458.148
2177265.0,1611470458.188
2176398.0,1611470458.229
2176239.0,1611470458.269
2176805.0,1611470458.31
2177044.0,1611470458.35
2177417.0,1611470458.389
2177550.0,1611470458.428
2178197.0,1611470458.469
2179303.0,1611470458.509
2179903.0,1611470458.548
2181008.0,1611470458.59
2180892.0,1611470458.629
2179039.0,1611470458.666
2175772.0,1611470458.707
2173310.0,1611470458.747
2171488.0,1611470458.787
2169970.0,1611470458.829
2169241.0,1611470458.868
2168835.0,1611470458.949
2169070.0,1611470458.909
2168970.0,1611470458.989
2169041.0,1611470459.029
2169668.0,1611470459.07
2171484.0,1611470459.15
2170449.0,1611470459.11
2172414.0,1611470459.189
2172627.0,1611470459.228
2170413.0,1611470459.269
2167044.0,1611470459.31
2164438.0,1611470459.349
2161145.0,1611470459.431
2162471.0,1611470459.389
2160583.0,1611470459.47
2160416.0,1611470459.509
2160393.0,1611470459.549
2160163.0,1611470459.589
2160030.0,1611470459.629
2160041.0,1611470459.67
2160557.0,1611470459.71
2161165.0,1611470459.75
2161885.0,1611470459.791
2161770.0,1611470459.828
2159759.0,1611470459.869
2156267.0,1611470459.911
2152577.0,1611470459.949
2149840.0,1611470459.989
2147442.0,1611470460.031
2145756.0,1611470460.07
2144929.0,1611470460.111
2143633.0,1611470460.15
2142949.0,1611470460.189
2141811.0,1611470460.229
2141614.0,1611470460.271
2140732.0,1611470460.31
2138079.0,1611470460.35
2134178.0,1611470460.391
2130340.0,1611470460.431
2125479.0,1611470460.473
2117681.0,1611470460.511
2108837.0,1611470460.549
2100683.0,1611470460.59
2092588.0,1611470460.631
2085306.0,1611470460.67
2079420.0,1611470460.711
2073719.0,1611470460.75
2068910.0,1611470460.789
2064812.0,1611470460.829
2062195.0,1611470460.871
2059622.0,1611470460.911
2058284.0,1611470460.949
2058081.0,1611470460.991
2057970.0,1611470461.031
2058045.0,1611470461.071
2058211.0,1611470461.113
2059078.0,1611470461.149
2060398.0,1611470461.19
2061533.0,1611470461.23
2064087.0,1611470461.27
2067383.0,1611470461.311
2071888.0,1611470461.351
2075810.0,1611470461.391
2079259.0,1611470461.431
2082212.0,1611470461.472
2088933.0,1611470461.55
2085591.0,1611470461.51
2091826.0,1611470461.591
2094464.0,1611470461.63
2096638.0,1611470461.67
2097474.0,1611470461.712
2096150.0,1611470461.751
2093756.0,1611470461.791
2091857.0,1611470461.831
2090387.0,1611470461.87
2089479.0,1611470461.911
2089245.0,1611470461.951
2089944.0,1611470461.991
2090698.0,1611470462.031
2091211.0,1611470462.072
2092047.0,1611470462.112
2093467.0,1611470462.15
2095084.0,1611470462.191
2096921.0,1611470462.23
2098658.0,1611470462.271
2100069.0,1611470462.313
2099900.0,1611470462.351
2097768.0,1611470462.392
2094970.0,1611470462.433
2093139.0,1611470462.47
2091602.0,1611470462.511
2090584.0,1611470462.552
2090060.0,1611470462.591
2090551.0,1611470462.631
2090868.0,1611470462.672
2091128.0,1611470462.712
2091418.0,1611470462.752
2092610.0,1611470462.791
2093851.0,1611470462.83
2095724.0,1611470462.871
2097368.0,1611470462.913
2098958.0,1611470462.951
2098739.0,1611470462.992
2096547.0,1611470463.033
2093838.0,1611470463.072
2092184.0,1611470463.111
2091189.0,1611470463.152
2090236.0,1611470463.191
2090768.0,1611470463.231
2091365.0,1611470463.273
2092488.0,1611470463.313
2093211.0,1611470463.352
2094378.0,1611470463.392
2095972.0,1611470463.431
2097341.0,1611470463.471
2099243.0,1611470463.513
2101291.0,1611470463.552
2102980.0,1611470463.592
2103818.0,1611470463.633
2102235.0,1611470463.673
2099857.0,1611470463.711
2097876.0,1611470463.752
2096750.0,1611470463.79
2095936.0,1611470463.831
2096164.0,1611470463.873
2096567.0,1611470463.912
2097029.0,1611470463.952
2097846.0,1611470463.993
2098879.0,1611470464.033
2099825.0,1611470464.071
2101335.0,1611470464.113
2103013.0,1611470464.152
2105044.0,1611470464.192
2106673.0,1611470464.233
2107240.0,1611470464.272
2105370.0,1611470464.313
2103280.0,1611470464.354
2101790.0,1611470464.391
2100999.0,1611470464.431
2100925.0,1611470464.473
2101322.0,1611470464.513
2101841.0,1611470464.552
2102477.0,1611470464.594
2103401.0,1611470464.633
2104151.0,1611470464.673
2105379.0,1611470464.713
2106874.0,1611470464.751
2108330.0,1611470464.792
2110116.0,1611470464.833
2110679.0,1611470464.872
2109111.0,1611470464.913
2106279.0,1611470464.954
2104720.0,1611470464.993
2103682.0,1611470465.032
2103403.0,1611470465.073
2103334.0,1611470465.113
2104283.0,1611470465.153
2104909.0,1611470465.194
2105555.0,1611470465.233
2106342.0,1611470465.273
2106620.0,1611470465.315
2107939.0,1611470465.352
2104797.0,1611470465.392
2101105.0,1611470465.433
2096164.0,1611470465.472
2089177.0,1611470465.513
2083110.0,1611470465.554
2079796.0,1611470465.593
2078709.0,1611470465.634
2079725.0,1611470465.675
2081627.0,1611470465.713
2084892.0,1611470465.752
2088482.0,1611470465.793
2091568.0,1611470465.833
2095698.0,1611470465.873
2099102.0,1611470465.915
2101762.0,1611470465.953
2104310.0,1611470465.994
2106734.0,1611470466.035
2107973.0,1611470466.072
2107183.0,1611470466.113
2105300.0,1611470466.154
2103438.0,1611470466.193
2102183.0,1611470466.234
2101532.0,1611470466.275
2101721.0,1611470466.318
2102674.0,1611470466.351
2103339.0,1611470466.392
2104451.0,1611470466.431
2105294.0,1611470466.472
2106180.0,1611470466.514
2107882.0,1611470466.552
2109565.0,1611470466.593
2111358.0,1611470466.634
2112921.0,1611470466.673
2113214.0,1611470466.714
2111483.0,1611470466.755
2109441.0,1611470466.794
2108281.0,1611470466.835
2107476.0,1611470466.874
2107461.0,1611470466.914
2107935.0,1611470466.953
2108740.0,1611470466.994
2109375.0,1611470467.034
2110467.0,1611470467.074
2111575.0,1611470467.116
2112944.0,1611470467.155
2114495.0,1611470467.193
2116315.0,1611470467.234
2117893.0,1611470467.273
2118209.0,1611470467.314
2116474.0,1611470467.355
2114553.0,1611470467.394
2113520.0,1611470467.435
2112706.0,1611470467.476
2113556.0,1611470467.553
2115298.0,1611470467.634
2114492.0,1611470467.595
2112989.0,1611470467.514
2116441.0,1611470467.674
2117351.0,1611470467.716
2118881.0,1611470467.755
2120389.0,1611470467.795
2122004.0,1611470467.834
2123463.0,1611470467.873
2123186.0,1611470467.914
2121400.0,1611470467.955
2119703.0,1611470467.994
2118763.0,1611470468.035
2118304.0,1611470468.076
2118613.0,1611470468.116
2118922.0,1611470468.154
2118747.0,1611470468.195
2118941.0,1611470468.234
2116750.0,1611470468.274
2113135.0,1611470468.316
2109653.0,1611470468.355
2107172.0,1611470468.395
2105180.0,1611470468.437
2103354.0,1611470468.474
2100454.0,1611470468.515
2097317.0,1611470468.555
2094076.0,1611470468.594
2089090.0,1611470468.635
2086672.0,1611470468.676
2089841.0,1611470468.716
2092360.0,1611470468.756
2094470.0,1611470468.795
2098454.0,1611470468.834
2104838.0,1611470468.872
2112585.0,1611470468.914
2119473.0,1611470468.952
2124970.0,1611470468.992
2128885.0,1611470469.034
2130552.0,1611470469.073
2130318.0,1611470469.113
2129567.0,1611470469.154
2129445.0,1611470469.193
2129790.0,1611470469.233
2130804.0,1611470469.274
2132079.0,1611470469.314
2133417.0,1611470469.354
2134513.0,1611470469.395
2135942.0,1611470469.435
2137616.0,1611470469.475
2139353.0,1611470469.515
2140589.0,1611470469.553
2142553.0,1611470469.594
2143004.0,1611470469.635
2141948.0,1611470469.674
2140372.0,1611470469.715
2139529.0,1611470469.756
2139534.0,1611470469.795
2140029.0,1611470469.834
2140835.0,1611470469.875
2142276.0,1611470469.915
2143043.0,1611470469.954
2143744.0,1611470469.996
2144996.0,1611470470.035
2146440.0,1611470470.075
2148122.0,1611470470.117
2149551.0,1611470470.154
2150007.0,1611470470.194
2148596.0,1611470470.235
2146719.0,1611470470.275
2145490.0,1611470470.316
2145192.0,1611470470.356
2145131.0,1611470470.395
2145691.0,1611470470.436
2146334.0,1611470470.475
2147024.0,1611470470.515
2147558.0,1611470470.554
2148539.0,1611470470.596
2149743.0,1611470470.635
2151258.0,1611470470.675
2152738.0,1611470470.717
2152943.0,1611470470.756
2151368.0,1611470470.794
2149178.0,1611470470.835
2147634.0,1611470470.875
2146849.0,1611470470.916
2146820.0,1611470470.956
2147007.0,1611470470.995
2148145.0,1611470471.036
2148935.0,1611470471.077
2149717.0,1611470471.115
2152092.0,1611470471.155
2156269.0,1611470471.196
2155690.0,1611470471.235
2156072.0,1611470471.275
2157709.0,1611470471.317
2158059.0,1611470471.356
2157578.0,1611470471.396
2157272.0,1611470471.439
2157377.0,1611470471.473
2157633.0,1611470471.514
2157891.0,1611470471.555
2158490.0,1611470471.594
2159269.0,1611470471.635
2159719.0,1611470471.676
2160409.0,1611470471.716
2161010.0,1611470471.756
2162078.0,1611470471.797
2163013.0,1611470471.836
2164680.0,1611470471.876
2166002.0,1611470471.918
2165532.0,1611470471.955
2163412.0,1611470471.995
2160589.0,1611470472.036
2158702.0,1611470472.075
2157116.0,1611470472.116
2156783.0,1611470472.157
2156611.0,1611470472.196
2157116.0,1611470472.237
2157139.0,1611470472.276
2157768.0,1611470472.316
2158084.0,1611470472.356
2158637.0,1611470472.397
2159514.0,1611470472.436
2160722.0,1611470472.476
2162039.0,1611470472.518
2162828.0,1611470472.557
2161617.0,1611470472.595
2158936.0,1611470472.636
2156702.0,1611470472.676
2154767.0,1611470472.717
2154106.0,1611470472.757
2153803.0,1611470472.796
2153776.0,1611470472.837
2154317.0,1611470472.878
2154320.0,1611470472.916
2154784.0,1611470472.956
2154987.0,1611470472.997
2156235.0,1611470473.036
2157154.0,1611470473.076
2158331.0,1611470473.118
2159224.0,1611470473.157
2158654.0,1611470473.197
2156327.0,1611470473.237
2154084.0,1611470473.276
2152359.0,1611470473.317
2151334.0,1611470473.357
2151193.0,1611470473.396
2151397.0,1611470473.437
2151355.0,1611470473.477
2151741.0,1611470473.518
2151973.0,1611470473.558
2152478.0,1611470473.599
2153429.0,1611470473.638
2154077.0,1611470473.678
2154748.0,1611470473.72
2155605.0,1611470473.758
2155477.0,1611470473.798
2151935.0,1611470473.839
2147251.0,1611470473.878
2142715.0,1611470473.919
2139211.0,1611470473.959
2136411.0,1611470473.999
2134168.0,1611470474.039
2133283.0,1611470474.08
2133053.0,1611470474.119
2133533.0,1611470474.2
2132927.0,1611470474.159
2134461.0,1611470474.239
2137828.0,1611470474.321
2135816.0,1611470474.279
2139883.0,1611470474.359
2142450.0,1611470474.399
2145133.0,1611470474.44
2147246.0,1611470474.479
2147562.0,1611470474.52
2146000.0,1611470474.561
2145032.0,1611470474.6
2144578.0,1611470474.64
2143616.0,1611470474.681
2143066.0,1611470474.721
2142677.0,1611470474.76
2142752.0,1611470474.801
2142706.0,1611470474.84
2142818.0,1611470474.88
2142885.0,1611470474.922
2143394.0,1611470474.96
2144167.0,1611470475.0
2145328.0,1611470475.042
2146371.0,1611470475.081
2147502.0,1611470475.121
2148746.0,1611470475.162
2149844.0,1611470475.201
2150944.0,1611470475.241
2149855.0,1611470475.282
2147296.0,1611470475.322
2144043.0,1611470475.361
2141694.0,1611470475.402
2139841.0,1611470475.441
2138688.0,1611470475.481
2138032.0,1611470475.523
2137933.0,1611470475.562
2137766.0,1611470475.602
2137781.0,1611470475.643
2138099.0,1611470475.682
2138394.0,1611470475.723
2139416.0,1611470475.763
2140363.0,1611470475.802
2141493.0,1611470475.842
2142589.0,1611470475.883
2144376.0,1611470475.923
2145732.0,1611470475.962
2146403.0,1611470476.003
2145181.0,1611470476.043
2142455.0,1611470476.083
2139971.0,1611470476.125
2138192.0,1611470476.163
2137020.0,1611470476.203
2136692.0,1611470476.244
2136468.0,1611470476.283
2136543.0,1611470476.324
2136365.0,1611470476.364
2136213.0,1611470476.403
2136519.0,1611470476.443
2137628.0,1611470476.485
2138372.0,1611470476.524
2137290.0,1611470476.564
2136080.0,1611470476.605
2135708.0,1611470476.644
2134674.0,1611470476.684
2134583.0,1611470476.726
2133398.0,1611470476.764
2132515.0,1611470476.804
2133069.0,1611470476.845
2136227.0,1611470476.884
2138663.0,1611470476.925
2141133.0,1611470476.966
2143244.0,1611470477.005
2144528.0,1611470477.045
2147538.0,1611470477.086
2151252.0,1611470477.126
2155285.0,1611470477.165
2159957.0,1611470477.206
2164510.0,1611470477.245
2168258.0,1611470477.285
2169302.0,1611470477.327
2168561.0,1611470477.365
2167250.0,1611470477.406
2166190.0,1611470477.447
2165156.0,1611470477.486
2164590.0,1611470477.526
2164569.0,1611470477.567
2164833.0,1611470477.606
2164948.0,1611470477.646
2165218.0,1611470477.687
2165658.0,1611470477.727
2166166.0,1611470477.766
2166953.0,1611470477.807
2168067.0,1611470477.846
2169637.0,1611470477.887
2170637.0,1611470477.928
2169631.0,1611470477.967
2166860.0,1611470478.007
2164149.0,1611470478.048
2162197.0,1611470478.087
2160746.0,1611470478.128
2159792.0,1611470478.168
2159868.0,1611470478.207
2159822.0,1611470478.247
2160061.0,1611470478.289
2160437.0,1611470478.328
2160945.0,1611470478.368
2161633.0,1611470478.409
2162711.0,1611470478.448
2164095.0,1611470478.488
2165645.0,1611470478.53
2165919.0,1611470478.568
2164140.0,1611470478.608
2161124.0,1611470478.649
2158377.0,1611470478.688
2156041.0,1611470478.729
2154779.0,1611470478.77
2153847.0,1611470478.809
2154003.0,1611470478.849
2154040.0,1611470478.89
2153997.0,1611470478.93
2154176.0,1611470478.969
2154518.0,1611470479.01
2155268.0,1611470479.049
2155916.0,1611470479.089
2157339.0,1611470479.131
2158584.0,1611470479.169
2159401.0,1611470479.21
2158100.0,1611470479.251
2155230.0,1611470479.29
2152031.0,1611470479.331
2149491.0,1611470479.371
2147636.0,1611470479.41
2146899.0,1611470479.45
2146458.0,1611470479.491
2146245.0,1611470479.531
2145950.0,1611470479.57
2145683.0,1611470479.611
2145988.0,1611470479.651
2146087.0,1611470479.691
2146856.0,1611470479.732
2147765.0,1611470479.771
2148875.0,1611470479.811
2148642.0,1611470479.852
2146392.0,1611470479.891
2143217.0,1611470479.932
2140491.0,1611470479.972
2138653.0,1611470480.011
2137251.0,1611470480.052
2136905.0,1611470480.093
2137019.0,1611470480.132
2136750.0,1611470480.172
2136806.0,1611470480.213
2136540.0,1611470480.252
2137297.0,1611470480.292
2137660.0,1611470480.334
2138703.0,1611470480.372
2139776.0,1611470480.412
2140729.0,1611470480.454
2140116.0,1611470480.493
2137277.0,1611470480.533
2133668.0,1611470480.574
2130883.0,1611470480.613
2128694.0,1611470480.653
2126956.0,1611470480.694
2125933.0,1611470480.734
2125721.0,1611470480.773
2125199.0,1611470480.814
2125145.0,1611470480.854
2125327.0,1611470480.876
2125501.0,1611470480.918
2126104.0,1611470480.957
2126894.0,1611470480.997
2128016.0,1611470481.038
2128990.0,1611470481.077
2130199.0,1611470481.118
2129510.0,1611470481.158
2126470.0,1611470481.197
2122949.0,1611470481.237
2120142.0,1611470481.278
2116048.0,1611470481.358
2117931.0,1611470481.318
2115377.0,1611470481.398
2115012.0,1611470481.435
2115059.0,1611470481.476
2114836.0,1611470481.518
2114836.0,1611470481.556
2115504.0,1611470481.597
2116350.0,1611470481.638
2116890.0,1611470481.676
2119812.0,1611470481.755
2121431.0,1611470481.794
2118086.0,1611470481.714
2122975.0,1611470481.835
2122966.0,1611470481.876
2120436.0,1611470481.916
2117489.0,1611470481.956
2114884.0,1611470481.997
2112860.0,1611470482.036
2111424.0,1611470482.077
2110728.0,1611470482.119
2110441.0,1611470482.157
2110505.0,1611470482.198
2110609.0,1611470482.237
2111232.0,1611470482.276
2112312.0,1611470482.317
2113401.0,1611470482.358
2114499.0,1611470482.397
2116048.0,1611470482.437
2117367.0,1611470482.479
2119208.0,1611470482.519
2120859.0,1611470482.556
2121125.0,1611470482.597
2119187.0,1611470482.637
2116294.0,1611470482.677
2113761.0,1611470482.719
2112116.0,1611470482.757
2110516.0,1611470482.839
2110480.0,1611470482.958
2110469.0,1611470482.876
2110549.0,1611470482.917
2110779.0,1611470482.798
2110791.0,1611470482.997
2111721.0,1611470483.037
2112343.0,1611470483.079
2113718.0,1611470483.119
2115052.0,1611470483.158
2116720.0,1611470483.197
2117973.0,1611470483.237
2117713.0,1611470483.277
2115549.0,1611470483.319
2113082.0,1611470483.357
2111271.0,1611470483.398
2110442.0,1611470483.439
2109982.0,1611470483.478
2110017.0,1611470483.517
2109612.0,1611470483.558
2109257.0,1611470483.597
2108608.0,1611470483.638
2107049.0,1611470483.679
2105525.0,1611470483.719
2103554.0,1611470483.758
2101953.0,1611470483.8
2100833.0,1611470483.837
2098973.0,1611470483.877
2095106.0,1611470483.919
2087954.0,1611470483.958
2081106.0,1611470483.998
2070019.0,1611470484.078
2063415.0,1611470484.119
2075644.0,1611470484.039
2056518.0,1611470484.158
2051324.0,1611470484.197
2047579.0,1611470484.237
2044426.0,1611470484.278
2042807.0,1611470484.317
2043127.0,1611470484.357
2051800.0,1611470484.399
2059046.0,1611470484.438
2063573.0,1611470484.478
2068373.0,1611470484.52
2074165.0,1611470484.559
2079893.0,1611470484.597
2085386.0,1611470484.639
2085950.0,1611470484.678
2086321.0,1611470484.719
2086791.0,1611470484.759
2088157.0,1611470484.798
2090151.0,1611470484.839
2092535.0,1611470484.88
2096334.0,1611470484.958
2094517.0,1611470484.918
2098215.0,1611470484.999
2101729.0,1611470485.078
2099794.0,1611470485.038
2103815.0,1611470485.12
2105863.0,1611470485.159
2107868.0,1611470485.199
2109848.0,1611470485.239
2111920.0,1611470485.278
2112460.0,1611470485.359
2108346.0,1611470485.439
2107296.0,1611470485.48
2106642.0,1611470485.52
2110239.0,1611470485.399
2113118.0,1611470485.319
2107026.0,1611470485.599
2108823.0,1611470485.679
2110232.0,1611470485.721
2111627.0,1611470485.759
2107818.0,1611470485.638
2106912.0,1611470485.558
2115076.0,1611470485.841
2116952.0,1611470485.878
2113304.0,1611470485.799
2119224.0,1611470485.919
2121567.0,1611470485.959
2122990.0,1611470485.999
2122582.0,1611470486.039
2120832.0,1611470486.08
2119251.0,1611470486.12
2118210.0,1611470486.16
2117954.0,1611470486.199
2117449.0,1611470486.238
2117787.0,1611470486.279
2116197.0,1611470486.321
2113627.0,1611470486.359
2111256.0,1611470486.4
2109763.0,1611470486.48
2112078.0,1611470486.56
2113984.0,1611470486.599
2110552.0,1611470486.519
2116076.0,1611470486.639
2116386.0,1611470486.681
2110247.0,1611470486.441
2116408.0,1611470486.72
2117790.0,1611470486.76
2120357.0,1611470486.8
2122623.0,1611470486.839
2123793.0,1611470486.88
2126175.0,1611470486.959
2129681.0,1611470486.999
2124208.0,1611470486.92
2133837.0,1611470487.04
2136917.0,1611470487.121
2135896.0,1611470487.08
2138256.0,1611470487.161
2139868.0,1611470487.201
2141541.0,1611470487.239
2143292.0,1611470487.28
2142658.0,1611470487.32
2140915.0,1611470487.36
2138881.0,1611470487.401
2136392.0,1611470487.48
2137489.0,1611470487.44
2136438.0,1611470487.522
2136950.0,1611470487.599
2137111.0,1611470487.641
2137546.0,1611470487.68
2137933.0,1611470487.721
2136661.0,1611470487.559
2138899.0,1611470487.761
2140257.0,1611470487.8
2143365.0,1611470487.959
2141839.0,1611470487.841
2140591.0,1611470488.001
2138256.0,1611470488.04
2136485.0,1611470488.08
2135338.0,1611470488.122
2134658.0,1611470488.161
2134534.0,1611470488.201
2134575.0,1611470488.24
2134409.0,1611470488.28
2134783.0,1611470488.321
2134909.0,1611470488.361
2143309.0,1611470487.882
2144227.0,1611470487.92
2137384.0,1611470488.482
2138291.0,1611470488.522
2136361.0,1611470488.441
2135601.0,1611470488.4
2139125.0,1611470488.56
2135255.0,1611470488.64
2138079.0,1611470488.601
2131021.0,1611470488.722
2131665.0,1611470488.68
2130278.0,1611470488.761
2130349.0,1611470488.801
2131544.0,1611470488.843
2133600.0,1611470488.88
2135875.0,1611470488.921
2138082.0,1611470488.961
2140678.0,1611470489.0
2142381.0,1611470489.041
2144205.0,1611470489.082
2145810.0,1611470489.122
2147733.0,1611470489.162
2150640.0,1611470489.24
2149416.0,1611470489.201
2149811.0,1611470489.28
2146099.0,1611470489.36
2144373.0,1611470489.439
2147969.0,1611470489.322
2144967.0,1611470489.398
2144420.0,1611470489.478
2144428.0,1611470489.52
2144852.0,1611470489.561
2145533.0,1611470489.6
2145837.0,1611470489.64
2146554.0,1611470489.682
2147316.0,1611470489.721
2148372.0,1611470489.761
2149599.0,1611470489.802
2150992.0,1611470489.842
2151535.0,1611470489.882
2150304.0,1611470489.924
2148191.0,1611470489.96
2146472.0,1611470490.001
2145265.0,1611470490.042
2144535.0,1611470490.081
2144592.0,1611470490.122
2144648.0,1611470490.163
2145234.0,1611470490.202
2145331.0,1611470490.242
2145644.0,1611470490.282
2146389.0,1611470490.321
2148875.0,1611470490.402
2150165.0,1611470490.442
2151757.0,1611470490.482
2152754.0,1611470490.524
2149956.0,1611470490.562
2148235.0,1611470490.601
2146944.0,1611470490.642
2147420.0,1611470490.361
2149168.0,1611470490.763
2147334.0,1611470490.722
2146647.0,1611470490.681
2151216.0,1611470490.802
2152771.0,1611470490.842
2153776.0,1611470490.884
2154700.0,1611470490.921
2155461.0,1611470490.961
2156440.0,1611470491.002
2157341.0,1611470491.042
2158678.0,1611470491.082
2159701.0,1611470491.124
2154154.0,1611470491.242
2152467.0,1611470491.281
2158710.0,1611470491.163
2156424.0,1611470491.203
2151241.0,1611470491.322
2150265.0,1611470491.363
2149565.0,1611470491.402
2149437.0,1611470491.443
2149144.0,1611470491.484
2149040.0,1611470491.524
2148899.0,1611470491.561
2149287.0,1611470491.603
2150062.0,1611470491.642
2150804.0,1611470491.682
2152965.0,1611470491.763
2151879.0,1611470491.724
2151798.0,1611470491.844
2153497.0,1611470491.803
2148679.0,1611470491.881
2145953.0,1611470491.921
2144513.0,1611470491.963
2143641.0,1611470492.002
2142729.0,1611470492.083
2142722.0,1611470492.163
2142995.0,1611470492.042
2142944.0,1611470492.204
2143244.0,1611470492.242
2143882.0,1611470492.282
2144754.0,1611470492.324
2145807.0,1611470492.362
2147021.0,1611470492.403
2142737.0,1611470492.123
2148402.0,1611470492.444
2149097.0,1611470492.483
2148013.0,1611470492.524
2145749.0,1611470492.563
2141794.0,1611470492.642
2143299.0,1611470492.602
2139710.0,1611470492.724
2140338.0,1611470492.684
2139627.0,1611470492.763
2140140.0,1611470492.804
2140241.0,1611470492.844
2140623.0,1611470492.888
2141211.0,1611470492.93
2142192.0,1611470492.968
2143422.0,1611470493.008
2144485.0,1611470493.049
2145801.0,1611470493.088
2147292.0,1611470493.129
2147719.0,1611470493.169
2143451.0,1611470493.249
2146064.0,1611470493.209
2141627.0,1611470493.29
2140583.0,1611470493.329
2140037.0,1611470493.409
2139999.0,1611470493.367
2140411.0,1611470493.488
2140175.0,1611470493.448
2140909.0,1611470493.53
2141389.0,1611470493.569
2141954.0,1611470493.609
2142892.0,1611470493.65
2144154.0,1611470493.687
2146572.0,1611470493.769
2145491.0,1611470493.728
2145624.0,1611470493.849
2142964.0,1611470493.89
2141976.0,1611470493.93
2141166.0,1611470493.97
2140818.0,1611470494.009
2147427.0,1611470493.808
2141130.0,1611470494.048
2141760.0,1611470494.088
2142354.0,1611470494.13
2142482.0,1611470494.169
2143044.0,1611470494.209
2143568.0,1611470494.251
2144508.0,1611470494.29
2145757.0,1611470494.329
2146744.0,1611470494.369
2148149.0,1611470494.408
2149087.0,1611470494.449
2148136.0,1611470494.489
2145316.0,1611470494.526
2142988.0,1611470494.566
2141211.0,1611470494.608
2138813.0,1611470494.73
2139800.0,1611470494.647
2139026.0,1611470494.688
2138962.0,1611470494.768
2139153.0,1611470494.809
2139179.0,1611470494.889
2142594.0,1611470494.971
2144342.0,1611470495.01
2145601.0,1611470495.05
2138997.0,1611470494.85
2141095.0,1611470494.93
2147610.0,1611470495.089
2148389.0,1611470495.129
2147960.0,1611470495.169
2147879.0,1611470495.21
2147964.0,1611470495.25
2148261.0,1611470495.29
2149056.0,1611470495.332
2150191.0,1611470495.368
2151561.0,1611470495.409
2154291.0,1611470495.489
2153235.0,1611470495.45
2157365.0,1611470495.571
2159278.0,1611470495.61
2160984.0,1611470495.65
2162781.0,1611470495.692
2164476.0,1611470495.729
2155865.0,1611470495.53
2164876.0,1611470495.769
2162950.0,1611470495.81
2157997.0,1611470495.932
2160982.0,1611470495.849
