bvp,time
-30.69,1708757860.640625
-17.68,1708757860.65625
-6.22,1708757860.671875
3.27,1708757860.6875
10.72,1708757860.703125
16.33,1708757860.71875
20.48,1708757860.734375
23.53,1708757860.75
25.76,1708757860.765625
27.23,1708757860.78125
27.89,1708757860.796875
27.72,1708757860.8125
26.79,1708757860.828125
25.27,1708757860.84375
23.44,1708757860.859375
21.52,1708757860.875
19.74,1708757860.890625
18.27,1708757860.90625
17.27,1708757860.921875
16.9,1708757860.9375
17.22,1708757860.953125
18.12,1708757860.96875
19.26,1708757860.984375
20.09,1708757861.0
19.95,1708757861.015625
18.16,1708757861.03125
14.26,1708757861.046875
8.18,1708757861.0625
0.36,1708757861.078125
-8.26,1708757861.09375
-16.44,1708757861.109375
-23.03,1708757861.125
-27.29,1708757861.140625
-29.12,1708757861.15625
-28.95,1708757861.171875
-27.44,1708757861.1875
-25.06,1708757861.203125
-21.97,1708757861.21875
-18.01,1708757861.234375
-13.03,1708757861.25
-7.12,1708757861.265625
-0.76,1708757861.28125
5.33,1708757861.296875
10.48,1708757861.3125
14.27,1708757861.328125
16.71,1708757861.34375
18.17,1708757861.359375
19.2,1708757861.375
20.24,1708757861.390625
21.6,1708757861.40625
23.41,1708757861.421875
25.72,1708757861.4375
28.61,1708757861.453125
32.22,1708757861.46875
36.69,1708757861.484375
42.03,1708757861.5
47.98,1708757861.515625
53.94,1708757861.53125
59.07,1708757861.546875
62.47,1708757861.5625
63.53,1708757861.578125
62.11,1708757861.59375
58.73,1708757861.609375
54.32,1708757861.625
49.92,1708757861.640625
46.25,1708757861.65625
43.6,1708757861.671875
41.88,1708757861.6875
40.96,1708757861.703125
40.97,1708757861.71875
42.54,1708757861.734375
46.65,1708757861.75
54.36,1708757861.765625
66.46,1708757861.78125
83.2,1708757861.796875
104.31,1708757861.8125
129.0,1708757861.828125
156.1,1708757861.84375
184.11,1708757861.859375
211.04,1708757861.875
234.35,1708757861.890625
251.1,1708757861.90625
258.48,1708757861.921875
254.55,1708757861.9375
238.78,1708757861.953125
212.22,1708757861.96875
176.94,1708757861.984375
135.21,1708757862.0
88.97,1708757862.015625
39.77,1708757862.03125
-10.7,1708757862.046875
-60.1,1708757862.0625
-105.33,1708757862.078125
-143.19,1708757862.09375
-171.31,1708757862.109375
-188.86,1708757862.125
-196.64,1708757862.140625
-196.52,1708757862.15625
-190.54,1708757862.171875
-180.46,1708757862.1875
-167.66,1708757862.203125
-153.47,1708757862.21875
-139.43,1708757862.234375
-127.33,1708757862.25
-118.75,1708757862.265625
-114.59,1708757862.28125
-114.74,1708757862.296875
-118.06,1708757862.3125
-122.75,1708757862.328125
-126.84,1708757862.34375
-128.72,1708757862.359375
-127.43,1708757862.375
-122.75,1708757862.390625
-115.03,1708757862.40625
-104.96,1708757862.421875
-93.34,1708757862.4375
-81.04,1708757862.453125
-68.99,1708757862.46875
-58.14,1708757862.484375
-49.3,1708757862.5
-43.07,1708757862.515625
-39.6,1708757862.53125
-38.62,1708757862.546875
-39.5,1708757862.5625
-41.54,1708757862.578125
-44.08,1708757862.59375
-46.63,1708757862.609375
-48.9,1708757862.625
-50.71,1708757862.640625
-51.96,1708757862.65625
-52.49,1708757862.671875
-52.2,1708757862.6875
-50.98,1708757862.703125
-48.82,1708757862.71875
-45.83,1708757862.734375
-42.22,1708757862.75
-38.26,1708757862.765625
-34.21,1708757862.78125
-30.32,1708757862.796875
-26.88,1708757862.8125
-24.17,1708757862.828125
-22.47,1708757862.84375
-21.98,1708757862.859375
-22.71,1708757862.875
-24.44,1708757862.890625
-26.83,1708757862.90625
-29.45,1708757862.921875
-32.01,1708757862.9375
-34.4,1708757862.953125
-36.7,1708757862.96875
-39.14,1708757862.984375
-41.98,1708757863.0
-45.4,1708757863.015625
-49.44,1708757863.03125
-53.96,1708757863.046875
-58.64,1708757863.0625
-63.05,1708757863.078125
-66.78,1708757863.09375
-69.59,1708757863.109375
-71.54,1708757863.125
-73.03,1708757863.140625
-74.75,1708757863.15625
-77.43,1708757863.171875
-81.6,1708757863.1875
-87.29,1708757863.203125
-93.9,1708757863.21875
-100.21,1708757863.234375
-104.62,1708757863.25
-105.6,1708757863.265625
-101.98,1708757863.28125
-93.34,1708757863.296875
-79.99,1708757863.3125
-62.9,1708757863.328125
-43.35,1708757863.34375
-22.68,1708757863.359375
-2.07,1708757863.375
17.55,1708757863.390625
35.42,1708757863.40625
51.02,1708757863.421875
63.95,1708757863.4375
74.13,1708757863.453125
81.77,1708757863.46875
87.52,1708757863.484375
92.26,1708757863.5
96.85,1708757863.515625
101.84,1708757863.53125
107.18,1708757863.546875
112.26,1708757863.5625
116.19,1708757863.578125
118.27,1708757863.59375
118.36,1708757863.609375
116.98,1708757863.625
115.1,1708757863.640625
113.61,1708757863.65625
113.03,1708757863.671875
113.33,1708757863.6875
114.12,1708757863.703125
114.93,1708757863.71875
115.33,1708757863.734375
114.99,1708757863.75
113.43,1708757863.765625
110.02,1708757863.78125
104.06,1708757863.796875
95.28,1708757863.8125
84.23,1708757863.828125
72.33,1708757863.84375
61.5,1708757863.859375
53.41,1708757863.875
48.75,1708757863.890625
46.79,1708757863.90625
45.7,1708757863.921875
43.32,1708757863.9375
38.07,1708757863.953125
29.54,1708757863.96875
18.59,1708757863.984375
6.78,1708757864.0
-4.31,1708757864.015625
-13.78,1708757864.03125
-21.66,1708757864.046875
-28.82,1708757864.0625
-36.52,1708757864.078125
-45.79,1708757864.09375
-56.99,1708757864.109375
-69.49,1708757864.125
-81.75,1708757864.140625
-91.69,1708757864.15625
-97.31,1708757864.171875
-97.3,1708757864.1875
-91.49,1708757864.203125
-81.1,1708757864.21875
-68.66,1708757864.234375
-57.63,1708757864.25
-51.59,1708757864.265625
-53.18,1708757864.28125
-63.06,1708757864.296875
-79.17,1708757864.3125
-97.1,1708757864.328125
-111.33,1708757864.34375
-117.23,1708757864.359375
-112.75,1708757864.375
-99.03,1708757864.390625
-79.71,1708757864.40625
-59.2,1708757864.421875
-40.9,1708757864.4375
-26.28,1708757864.453125
-15.16,1708757864.46875
-6.65,1708757864.484375
-0.16,1708757864.5
4.33,1708757864.515625
6.64,1708757864.53125
7.05,1708757864.546875
6.58,1708757864.5625
6.75,1708757864.578125
8.8,1708757864.59375
13.06,1708757864.609375
18.75,1708757864.625
24.36,1708757864.640625
28.37,1708757864.65625
29.98,1708757864.671875
29.31,1708757864.6875
27.29,1708757864.703125
25.1,1708757864.71875
23.63,1708757864.734375
23.08,1708757864.75
22.98,1708757864.765625
22.44,1708757864.78125
20.62,1708757864.796875
17.12,1708757864.8125
12.17,1708757864.828125
6.51,1708757864.84375
1.08,1708757864.859375
-3.45,1708757864.875
-7.05,1708757864.890625
-10.36,1708757864.90625
-14.44,1708757864.921875
-20.23,1708757864.9375
-27.98,1708757864.953125
-36.97,1708757864.96875
-45.61,1708757864.984375
-51.91,1708757865.0
-54.1,1708757865.015625
-51.21,1708757865.03125
-43.21,1708757865.046875
-30.98,1708757865.0625
-15.95,1708757865.078125
0.27,1708757865.09375
16.17,1708757865.109375
30.58,1708757865.125
42.72,1708757865.140625
52.39,1708757865.15625
59.84,1708757865.171875
65.71,1708757865.1875
70.66,1708757865.203125
75.17,1708757865.21875
79.24,1708757865.234375
82.53,1708757865.25
84.56,1708757865.265625
85.09,1708757865.28125
84.3,1708757865.296875
82.8,1708757865.3125
81.35,1708757865.328125
80.54,1708757865.34375
80.67,1708757865.359375
81.72,1708757865.375
83.61,1708757865.390625
86.25,1708757865.40625
89.53,1708757865.421875
93.26,1708757865.4375
96.94,1708757865.453125
99.8,1708757865.46875
101.1,1708757865.484375
100.32,1708757865.5
97.46,1708757865.515625
92.98,1708757865.53125
87.59,1708757865.546875
81.92,1708757865.5625
76.41,1708757865.578125
71.2,1708757865.59375
66.28,1708757865.609375
61.58,1708757865.625
57.02,1708757865.640625
52.49,1708757865.65625
47.78,1708757865.671875
42.65,1708757865.6875
36.96,1708757865.703125
30.78,1708757865.71875
24.39,1708757865.734375
18.16,1708757865.75
12.32,1708757865.765625
6.71,1708757865.78125
0.8,1708757865.796875
-6.16,1708757865.8125
-14.66,1708757865.828125
-24.55,1708757865.84375
-34.71,1708757865.859375
-43.18,1708757865.875
-47.65,1708757865.890625
-46.16,1708757865.90625
-37.88,1708757865.921875
-23.3,1708757865.9375
-4.16,1708757865.953125
17.2,1708757865.96875
38.47,1708757865.984375
57.95,1708757866.0
74.74,1708757866.015625
88.69,1708757866.03125
100.21,1708757866.046875
110.11,1708757866.0625
119.33,1708757866.078125
128.66,1708757866.09375
138.14,1708757866.109375
146.65,1708757866.125
151.76,1708757866.140625
150.33,1708757866.15625
139.73,1708757866.171875
119.09,1708757866.1875
90.06,1708757866.203125
56.47,1708757866.21875
23.17,1708757866.234375
-5.55,1708757866.25
-27.07,1708757866.265625
-40.6,1708757866.28125
-46.69,1708757866.296875
-46.38,1708757866.3125
-40.79,1708757866.328125
-31.18,1708757866.34375
-19.33,1708757866.359375
-7.7,1708757866.375
0.93,1708757866.390625
4.28,1708757866.40625
1.43,1708757866.421875
-6.8,1708757866.4375
-18.13,1708757866.453125
-29.73,1708757866.46875
-39.2,1708757866.484375
-45.29,1708757866.5
-48.07,1708757866.515625
-48.52,1708757866.53125
-48.0,1708757866.546875
-47.59,1708757866.5625
-47.87,1708757866.578125
-48.9,1708757866.59375
-50.42,1708757866.609375
-52.21,1708757866.625
-54.31,1708757866.640625
-57.05,1708757866.65625
-61.0,1708757866.671875
-66.69,1708757866.6875
-74.27,1708757866.703125
-83.34,1708757866.71875
-92.87,1708757866.734375
-101.33,1708757866.75
-106.99,1708757866.765625
-108.31,1708757866.78125
-104.29,1708757866.796875
-94.68,1708757866.8125
-80.11,1708757866.828125
-61.76,1708757866.84375
-41.39,1708757866.859375
-21.02,1708757866.875
-2.48,1708757866.890625
13.0,1708757866.90625
24.98,1708757866.921875
33.69,1708757866.9375
39.62,1708757866.953125
43.38,1708757866.96875
45.65,1708757866.984375
46.88,1708757867.0
47.26,1708757867.015625
46.85,1708757867.03125
45.73,1708757867.046875
44.13,1708757867.0625
42.33,1708757867.078125
40.65,1708757867.09375
39.46,1708757867.109375
39.6,1708757867.125
41.55,1708757867.140625
45.23,1708757867.15625
50.03,1708757867.171875
55.19,1708757867.1875
60.11,1708757867.203125
64.41,1708757867.21875
67.76,1708757867.234375
70.06,1708757867.25
72.82,1708757867.265625
76.95,1708757867.28125
82.32,1708757867.296875
87.89,1708757867.3125
92.57,1708757867.328125
95.87,1708757867.34375
97.88,1708757867.359375
98.72,1708757867.375
98.9,1708757867.390625
102.1,1708757867.40625
110.51,1708757867.421875
123.85,1708757867.4375
139.72,1708757867.453125
155.2,1708757867.46875
168.39,1708757867.484375
178.49,1708757867.5
184.86,1708757867.515625
188.16,1708757867.53125
194.6,1708757867.546875
208.78,1708757867.5625
231.93,1708757867.578125
262.06,1708757867.59375
296.1,1708757867.609375
331.73,1708757867.625
367.35,1708757867.640625
400.75,1708757867.65625
430.95,1708757867.671875
463.56,1708757867.6875
501.2,1708757867.703125
541.19,1708757867.71875
576.33,1708757867.734375
599.23,1708757867.75
606.32,1708757867.765625
598.74,1708757867.78125
580.18,1708757867.796875
514.15,1708757867.8125
387.88,1708757867.828125
215.12,1708757867.84375
30.2,1708757867.859375
-134.18,1708757867.875
-261.96,1708757867.890625
-352.32,1708757867.90625
-406.12,1708757867.921875
-437.89,1708757867.9375
-457.07,1708757867.953125
-462.12,1708757867.96875
-451.47,1708757867.984375
-427.0,1708757868.0
-394.59,1708757868.015625
-360.9,1708757868.03125
-330.44,1708757868.046875
-305.43,1708757868.0625
-287.52,1708757868.078125
-276.0,1708757868.09375
-265.04,1708757868.109375
-251.21,1708757868.125
-234.69,1708757868.140625
-218.61,1708757868.15625
-206.19,1708757868.171875
-198.69,1708757868.1875
-195.85,1708757868.203125
-197.79,1708757868.21875
-203.75,1708757868.234375
-210.17,1708757868.25
-214.79,1708757868.265625
-217.0,1708757868.28125
-217.55,1708757868.296875
-217.38,1708757868.3125
-216.87,1708757868.328125
-216.28,1708757868.34375
-216.67,1708757868.359375
-218.46,1708757868.375
-220.22,1708757868.390625
-220.4,1708757868.40625
-217.72,1708757868.421875
-211.44,1708757868.4375
-201.22,1708757868.453125
-187.01,1708757868.46875
-169.23,1708757868.484375
-149.13,1708757868.5
-127.91,1708757868.515625
-106.36,1708757868.53125
-85.33,1708757868.546875
-65.73,1708757868.5625
-48.52,1708757868.578125
-34.41,1708757868.59375
-23.7,1708757868.609375
-16.28,1708757868.625
-11.77,1708757868.640625
-9.3,1708757868.65625
-7.77,1708757868.671875
-6.06,1708757868.6875
-3.38,1708757868.703125
0.28,1708757868.71875
4.12,1708757868.734375
6.77,1708757868.75
6.94,1708757868.765625
4.11,1708757868.78125
-1.13,1708757868.796875
-7.31,1708757868.8125
-12.79,1708757868.828125
-16.45,1708757868.84375
-18.16,1708757868.859375
-18.51,1708757868.875
-18.47,1708757868.890625
-18.73,1708757868.90625
-19.5,1708757868.921875
-20.6,1708757868.9375
-21.75,1708757868.953125
-22.78,1708757868.96875
-23.76,1708757868.984375
-24.91,1708757869.0
-26.4,1708757869.015625
-28.29,1708757869.03125
-30.45,1708757869.046875
-32.65,1708757869.0625
-34.63,1708757869.078125
-36.27,1708757869.09375
-37.64,1708757869.109375
-39.11,1708757869.125
-41.29,1708757869.140625
-44.87,1708757869.15625
-50.53,1708757869.171875
-58.64,1708757869.1875
-69.07,1708757869.203125
-81.07,1708757869.21875
-93.28,1708757869.234375
-103.92,1708757869.25
-111.16,1708757869.265625
-113.63,1708757869.28125
-110.8,1708757869.296875
-103.16,1708757869.3125
-92.08,1708757869.328125
-79.39,1708757869.34375
-66.82,1708757869.359375
-55.61,1708757869.375
-46.29,1708757869.390625
-38.69,1708757869.40625
-32.21,1708757869.421875
-26.13,1708757869.4375
-19.9,1708757869.453125
-13.35,1708757869.46875
-6.72,1708757869.484375
-0.48,1708757869.5
4.93,1708757869.515625
9.38,1708757869.53125
13.14,1708757869.546875
16.74,1708757869.5625
20.69,1708757869.578125
25.23,1708757869.59375
30.25,1708757869.609375
35.44,1708757869.625
40.54,1708757869.640625
45.41,1708757869.65625
49.95,1708757869.671875
53.92,1708757869.6875
56.86,1708757869.703125
58.28,1708757869.71875
57.94,1708757869.734375
56.14,1708757869.75
53.77,1708757869.765625
51.93,1708757869.78125
51.47,1708757869.796875
52.54,1708757869.8125
54.54,1708757869.828125
56.43,1708757869.84375
57.19,1708757869.859375
56.3,1708757869.875
53.82,1708757869.890625
50.4,1708757869.90625
46.87,1708757869.921875
43.92,1708757869.9375
41.92,1708757869.953125
40.81,1708757869.96875
40.17,1708757869.984375
39.35,1708757870.0
37.68,1708757870.015625
34.63,1708757870.03125
30.13,1708757870.046875
24.65,1708757870.0625
19.31,1708757870.078125
15.63,1708757870.09375
15.13,1708757870.109375
18.83,1708757870.125
26.86,1708757870.140625
38.37,1708757870.15625
51.74,1708757870.171875
65.08,1708757870.1875
76.71,1708757870.203125
85.58,1708757870.21875
91.4,1708757870.234375
94.52,1708757870.25
95.59,1708757870.265625
95.28,1708757870.28125
94.03,1708757870.296875
92.0,1708757870.3125
89.18,1708757870.328125
85.6,1708757870.34375
81.46,1708757870.359375
77.08,1708757870.375
72.83,1708757870.390625
68.94,1708757870.40625
65.44,1708757870.421875
62.19,1708757870.4375
58.99,1708757870.453125
55.72,1708757870.46875
52.38,1708757870.484375
49.04,1708757870.5
45.8,1708757870.515625
42.71,1708757870.53125
39.82,1708757870.546875
37.12,1708757870.5625
34.56,1708757870.578125
32.02,1708757870.59375
29.26,1708757870.609375
25.96,1708757870.625
21.81,1708757870.640625
16.69,1708757870.65625
10.75,1708757870.671875
4.46,1708757870.6875
-1.59,1708757870.703125
-6.83,1708757870.71875
-11.0,1708757870.734375
-14.09,1708757870.75
-16.35,1708757870.765625
-18.14,1708757870.78125
-19.72,1708757870.796875
-21.21,1708757870.8125
-22.49,1708757870.828125
-23.16,1708757870.84375
-22.64,1708757870.859375
-20.27,1708757870.875
-15.56,1708757870.890625
-8.53,1708757870.90625
0.15,1708757870.921875
9.19,1708757870.9375
16.99,1708757870.953125
22.18,1708757870.96875
24.09,1708757870.984375
22.89,1708757871.0
19.5,1708757871.015625
15.13,1708757871.03125
10.88,1708757871.046875
7.4,1708757871.0625
4.89,1708757871.078125
3.23,1708757871.09375
2.14,1708757871.109375
1.43,1708757871.125
0.96,1708757871.140625
0.71,1708757871.15625
0.64,1708757871.171875
0.67,1708757871.1875
0.68,1708757871.203125
0.56,1708757871.21875
0.24,1708757871.234375
-0.22,1708757871.25
-0.71,1708757871.265625
-1.14,1708757871.28125
-1.51,1708757871.296875
-1.96,1708757871.3125
-2.75,1708757871.328125
-4.16,1708757871.34375
-6.42,1708757871.359375
-9.66,1708757871.375
-13.84,1708757871.390625
-18.83,1708757871.40625
-24.4,1708757871.421875
-30.31,1708757871.4375
-36.28,1708757871.453125
-42.1,1708757871.46875
-47.56,1708757871.484375
-52.57,1708757871.5
-57.12,1708757871.515625
-61.34,1708757871.53125
-65.49,1708757871.546875
-69.9,1708757871.5625
-74.9,1708757871.578125
-80.64,1708757871.59375
-86.82,1708757871.609375
-92.62,1708757871.625
-96.78,1708757871.640625
-97.83,1708757871.65625
-94.61,1708757871.671875
-86.67,1708757871.6875
-74.52,1708757871.703125
-59.45,1708757871.71875
-43.23,1708757871.734375
-27.58,1708757871.75
-13.81,1708757871.765625
-2.57,1708757871.78125
6.09,1708757871.796875
12.52,1708757871.8125
17.25,1708757871.828125
20.71,1708757871.84375
23.22,1708757871.859375
24.88,1708757871.875
25.77,1708757871.890625
25.97,1708757871.90625
25.61,1708757871.921875
24.92,1708757871.9375
24.14,1708757871.953125
23.49,1708757871.96875
23.15,1708757871.984375
23.19,1708757872.0
23.59,1708757872.015625
24.24,1708757872.03125
24.95,1708757872.046875
25.49,1708757872.0625
25.58,1708757872.078125
25.01,1708757872.09375
23.68,1708757872.109375
21.63,1708757872.125
19.04,1708757872.140625
16.18,1708757872.15625
13.27,1708757872.171875
10.37,1708757872.1875
7.39,1708757872.203125
4.1,1708757872.21875
0.27,1708757872.234375
-4.2,1708757872.25
-9.2,1708757872.265625
-14.45,1708757872.28125
-19.61,1708757872.296875
-24.37,1708757872.3125
-28.66,1708757872.328125
-32.58,1708757872.34375
-36.48,1708757872.359375
-40.71,1708757872.375
-45.53,1708757872.390625
-50.83,1708757872.40625
-56.04,1708757872.421875
-60.16,1708757872.4375
-61.97,1708757872.453125
-60.39,1708757872.46875
-54.86,1708757872.484375
-45.55,1708757872.5
-33.32,1708757872.515625
-19.49,1708757872.53125
-5.46,1708757872.546875
7.58,1708757872.5625
18.87,1708757872.578125
28.14,1708757872.59375
35.46,1708757872.609375
41.16,1708757872.625
45.57,1708757872.640625
48.91,1708757872.65625
51.25,1708757872.671875
52.55,1708757872.6875
52.79,1708757872.703125
52.05,1708757872.71875
50.61,1708757872.734375
48.84,1708757872.75
47.14,1708757872.765625
45.79,1708757872.78125
44.93,1708757872.796875
44.54,1708757872.8125
44.49,1708757872.828125
44.68,1708757872.84375
44.95,1708757872.859375
45.16,1708757872.875
45.06,1708757872.890625
44.4,1708757872.90625
43.01,1708757872.921875
40.87,1708757872.9375
38.22,1708757872.953125
35.37,1708757872.96875
32.61,1708757872.984375
30.0,1708757873.0
27.34,1708757873.015625
24.3,1708757873.03125
20.7,1708757873.046875
16.64,1708757873.0625
12.55,1708757873.078125
9.04,1708757873.09375
6.55,1708757873.109375
5.13,1708757873.125
4.43,1708757873.140625
3.76,1708757873.15625
2.43,1708757873.171875
-0.04,1708757873.1875
-3.8,1708757873.203125
-8.63,1708757873.21875
-14.05,1708757873.234375
-19.45,1708757873.25
-24.21,1708757873.265625
-27.74,1708757873.28125
-29.52,1708757873.296875
-29.29,1708757873.3125
-27.04,1708757873.328125
-23.1,1708757873.34375
-18.02,1708757873.359375
-12.24,1708757873.375
-5.91,1708757873.390625
1.26,1708757873.40625
9.61,1708757873.421875
19.14,1708757873.4375
29.01,1708757873.453125
37.67,1708757873.46875
43.37,1708757873.484375
45.13,1708757873.5
43.3,1708757873.515625
39.68,1708757873.53125
36.9,1708757873.546875
37.4,1708757873.5625
42.55,1708757873.578125
52.21,1708757873.59375
64.97,1708757873.609375
78.61,1708757873.625
90.78,1708757873.640625
99.39,1708757873.65625
102.99,1708757873.671875
100.84,1708757873.6875
93.11,1708757873.703125
80.74,1708757873.71875
65.33,1708757873.734375
48.68,1708757873.75
32.41,1708757873.765625
17.61,1708757873.78125
4.7,1708757873.796875
-6.58,1708757873.8125
-16.94,1708757873.828125
-27.34,1708757873.84375
-38.63,1708757873.859375
-51.35,1708757873.875
-65.5,1708757873.890625
-80.49,1708757873.90625
-95.32,1708757873.921875
-108.89,1708757873.9375
-120.47,1708757873.953125
-129.86,1708757873.96875
-137.48,1708757873.984375
-144.09,1708757874.0
-150.26,1708757874.015625
-156.08,1708757874.03125
-160.9,1708757874.046875
-163.5,1708757874.0625
-162.54,1708757874.078125
-157.02,1708757874.09375
-146.74,1708757874.109375
-132.35,1708757874.125
-115.27,1708757874.140625
-97.18,1708757874.15625
-79.6,1708757874.171875
-63.54,1708757874.1875
-49.44,1708757874.203125
-37.26,1708757874.21875
-26.74,1708757874.234375
-17.67,1708757874.25
-9.94,1708757874.265625
-3.51,1708757874.28125
1.7,1708757874.296875
5.82,1708757874.3125
9.09,1708757874.328125
11.68,1708757874.34375
13.76,1708757874.359375
15.45,1708757874.375
16.92,1708757874.390625
18.39,1708757874.40625
20.11,1708757874.421875
22.27,1708757874.4375
24.79,1708757874.453125
27.38,1708757874.46875
29.56,1708757874.484375
30.86,1708757874.5
31.03,1708757874.515625
30.03,1708757874.53125
28.04,1708757874.546875
25.26,1708757874.5625
21.76,1708757874.578125
17.48,1708757874.59375
12.28,1708757874.609375
6.09,1708757874.625
-0.98,1708757874.640625
-8.65,1708757874.65625
-16.48,1708757874.671875
-24.03,1708757874.6875
-30.97,1708757874.703125
-37.11,1708757874.71875
-42.49,1708757874.734375
-47.27,1708757874.75
-51.77,1708757874.765625
-56.32,1708757874.78125
-61.14,1708757874.796875
-66.16,1708757874.8125
-70.88,1708757874.828125
-74.41,1708757874.84375
-75.61,1708757874.859375
-73.48,1708757874.875
-67.46,1708757874.890625
-57.68,1708757874.90625
-44.95,1708757874.921875
-30.5,1708757874.9375
-15.76,1708757874.953125
-1.98,1708757874.96875
9.99,1708757874.984375
19.75,1708757875.0
27.28,1708757875.015625
32.83,1708757875.03125
36.76,1708757875.046875
39.41,1708757875.0625
41.04,1708757875.078125
41.82,1708757875.09375
41.89,1708757875.109375
41.39,1708757875.125
40.49,1708757875.140625
39.36,1708757875.15625
38.21,1708757875.171875
37.19,1708757875.1875
36.46,1708757875.203125
36.05,1708757875.21875
35.98,1708757875.234375
36.15,1708757875.25
36.43,1708757875.265625
36.61,1708757875.28125
36.46,1708757875.296875
35.76,1708757875.3125
34.27,1708757875.328125
31.82,1708757875.34375
28.26,1708757875.359375
23.56,1708757875.375
17.8,1708757875.390625
11.17,1708757875.40625
3.96,1708757875.421875
-3.5,1708757875.4375
-10.87,1708757875.453125
-17.94,1708757875.46875
-24.56,1708757875.484375
-30.74,1708757875.5
-36.61,1708757875.515625
-42.5,1708757875.53125
-48.85,1708757875.546875
-56.1,1708757875.5625
-64.44,1708757875.578125
-73.57,1708757875.59375
-82.56,1708757875.609375
-89.98,1708757875.625
-94.24,1708757875.640625
-94.04,1708757875.65625
-88.82,1708757875.671875
-78.95,1708757875.6875
-65.56,1708757875.703125
-50.22,1708757875.71875
-34.46,1708757875.734375
-19.47,1708757875.75
-5.95,1708757875.765625
5.9,1708757875.78125
16.14,1708757875.796875
24.97,1708757875.8125
32.61,1708757875.828125
39.19,1708757875.84375
44.77,1708757875.859375
49.37,1708757875.875
52.92,1708757875.890625
55.39,1708757875.90625
56.76,1708757875.921875
57.08,1708757875.9375
56.53,1708757875.953125
55.45,1708757875.96875
54.3,1708757875.984375
53.53,1708757876.0
53.47,1708757876.015625
54.11,1708757876.03125
55.13,1708757876.046875
55.94,1708757876.0625
55.97,1708757876.078125
54.86,1708757876.09375
52.58,1708757876.109375
49.38,1708757876.125
45.63,1708757876.140625
41.58,1708757876.15625
37.23,1708757876.171875
32.37,1708757876.1875
26.79,1708757876.203125
20.39,1708757876.21875
13.39,1708757876.234375
6.22,1708757876.25
-0.62,1708757876.265625
-6.78,1708757876.28125
-12.21,1708757876.296875
-17.17,1708757876.3125
-22.16,1708757876.328125
-27.73,1708757876.34375
-34.37,1708757876.359375
-42.3,1708757876.375
-51.37,1708757876.390625
-60.93,1708757876.40625
-69.8,1708757876.421875
-76.48,1708757876.4375
-79.49,1708757876.453125
-77.76,1708757876.46875
-71.09,1708757876.484375
-60.23,1708757876.5
-46.65,1708757876.515625
-32.16,1708757876.53125
-18.33,1708757876.546875
-6.21,1708757876.5625
3.76,1708757876.578125
11.57,1708757876.59375
17.47,1708757876.609375
21.76,1708757876.625
24.73,1708757876.640625
26.65,1708757876.65625
27.77,1708757876.671875
28.24,1708757876.6875
28.2,1708757876.703125
27.72,1708757876.71875
26.89,1708757876.734375
25.88,1708757876.75
24.94,1708757876.765625
24.35,1708757876.78125
24.3,1708757876.796875
24.82,1708757876.8125
25.75,1708757876.828125
26.79,1708757876.84375
27.61,1708757876.859375
27.93,1708757876.875
27.57,1708757876.890625
26.47,1708757876.90625
24.6,1708757876.921875
22.0,1708757876.9375
18.74,1708757876.953125
14.9,1708757876.96875
10.62,1708757876.984375
6.03,1708757877.0
1.25,1708757877.015625
-3.6,1708757877.03125
-8.48,1708757877.046875
-13.31,1708757877.0625
-18.09,1708757877.078125
-22.82,1708757877.09375
-27.57,1708757877.109375
-32.55,1708757877.125
-38.01,1708757877.140625
-44.2,1708757877.15625
-51.12,1708757877.171875
-58.36,1708757877.1875
-65.06,1708757877.203125
-69.95,1708757877.21875
-71.7,1708757877.234375
-69.31,1708757877.25
-62.47,1708757877.265625
-51.68,1708757877.28125
-38.21,1708757877.296875
-23.65,1708757877.3125
-9.53,1708757877.328125
3.06,1708757877.34375
13.62,1708757877.359375
22.12,1708757877.375
28.78,1708757877.390625
33.84,1708757877.40625
37.47,1708757877.421875
39.77,1708757877.4375
40.88,1708757877.453125
41.0,1708757877.46875
40.43,1708757877.484375
39.42,1708757877.5
38.23,1708757877.515625
37.05,1708757877.53125
36.02,1708757877.546875
35.26,1708757877.5625
34.84,1708757877.578125
34.71,1708757877.59375
34.73,1708757877.609375
34.7,1708757877.625
34.43,1708757877.640625
33.81,1708757877.65625
32.82,1708757877.671875
31.45,1708757877.6875
29.64,1708757877.703125
27.26,1708757877.71875
24.16,1708757877.734375
20.25,1708757877.75
15.55,1708757877.765625
10.22,1708757877.78125
4.51,1708757877.796875
-1.33,1708757877.8125
-7.07,1708757877.828125
-12.59,1708757877.84375
-17.9,1708757877.859375
-23.16,1708757877.875
-28.66,1708757877.890625
-34.71,1708757877.90625
-41.55,1708757877.921875
-49.13,1708757877.9375
-57.0,1708757877.953125
-64.26,1708757877.96875
-69.72,1708757877.984375
-72.12,1708757878.0
-70.49,1708757878.015625
-64.47,1708757878.03125
-54.39,1708757878.046875
-41.34,1708757878.0625
-26.75,1708757878.078125
-12.18,1708757878.09375
1.15,1708757878.109375
12.46,1708757878.125
21.46,1708757878.140625
28.24,1708757878.15625
33.06,1708757878.171875
36.22,1708757878.1875
38.05,1708757878.203125
38.89,1708757878.21875
39.06,1708757878.234375
38.86,1708757878.25
38.45,1708757878.265625
37.84,1708757878.28125
36.89,1708757878.296875
35.44,1708757878.3125
33.45,1708757878.328125
31.1,1708757878.34375
28.76,1708757878.359375
26.84,1708757878.375
25.68,1708757878.390625
25.42,1708757878.40625
25.98,1708757878.421875
27.2,1708757878.4375
28.88,1708757878.453125
30.9,1708757878.46875
33.13,1708757878.484375
35.48,1708757878.5
37.81,1708757878.515625
40.14,1708757878.53125
42.57,1708757878.546875
45.21,1708757878.5625
48.01,1708757878.578125
50.69,1708757878.59375
52.77,1708757878.609375
53.81,1708757878.625
53.76,1708757878.640625
52.98,1708757878.65625
52.07,1708757878.671875
51.36,1708757878.6875
50.46,1708757878.703125
48.19,1708757878.71875
42.94,1708757878.734375
33.4,1708757878.75
19.35,1708757878.765625
1.9,1708757878.78125
-16.66,1708757878.796875
-33.59,1708757878.8125
-46.44,1708757878.828125
-53.7,1708757878.84375
-54.98,1708757878.859375
-50.97,1708757878.875
-43.1,1708757878.890625
-33.14,1708757878.90625
-22.83,1708757878.921875
-13.6,1708757878.9375
-6.49,1708757878.953125
-2.04,1708757878.96875
-0.31,1708757878.984375
-1.01,1708757879.0
-3.6,1708757879.015625
-7.36,1708757879.03125
-11.6,1708757879.046875
-15.67,1708757879.0625
-19.08,1708757879.078125
-21.57,1708757879.09375
-23.09,1708757879.109375
-23.82,1708757879.125
-24.1,1708757879.140625
-24.26,1708757879.15625
-24.51,1708757879.171875
-24.91,1708757879.1875
-25.27,1708757879.203125
-25.37,1708757879.21875
-25.07,1708757879.234375
-24.44,1708757879.25
-23.83,1708757879.265625
-23.72,1708757879.28125
-24.54,1708757879.296875
-26.44,1708757879.3125
-29.23,1708757879.328125
-32.49,1708757879.34375
-35.69,1708757879.359375
-38.53,1708757879.375
-40.97,1708757879.390625
-43.32,1708757879.40625
-46.05,1708757879.421875
-49.66,1708757879.4375
-54.43,1708757879.453125
-60.3,1708757879.46875
-66.68,1708757879.484375
-72.54,1708757879.5
-76.57,1708757879.515625
-77.44,1708757879.53125
-74.22,1708757879.546875
-66.61,1708757879.5625
-55.13,1708757879.578125
-40.91,1708757879.59375
-25.44,1708757879.609375
-10.18,1708757879.625
3.73,1708757879.640625
15.6,1708757879.65625
25.17,1708757879.671875
32.48,1708757879.6875
37.73,1708757879.703125
41.14,1708757879.71875
42.9,1708757879.734375
43.22,1708757879.75
42.38,1708757879.765625
40.78,1708757879.78125
38.85,1708757879.796875
37.03,1708757879.8125
35.59,1708757879.828125
34.6,1708757879.84375
33.9,1708757879.859375
33.25,1708757879.875
32.46,1708757879.890625
31.45,1708757879.90625
30.3,1708757879.921875
29.11,1708757879.9375
27.89,1708757879.953125
26.47,1708757879.96875
24.58,1708757879.984375
21.83,1708757880.0
17.93,1708757880.015625
12.76,1708757880.03125
6.45,1708757880.046875
-0.57,1708757880.0625
-7.7,1708757880.078125
-14.34,1708757880.09375
-20.12,1708757880.109375
-25.03,1708757880.125
-29.46,1708757880.140625
-34.1,1708757880.15625
-39.65,1708757880.171875
-46.56,1708757880.1875
-54.7,1708757880.203125
-63.25,1708757880.21875
-70.85,1708757880.234375
-75.82,1708757880.25
-76.68,1708757880.265625
-72.56,1708757880.28125
-63.51,1708757880.296875
-50.57,1708757880.3125
-35.37,1708757880.328125
-19.71,1708757880.34375
-5.01,1708757880.359375
8.03,1708757880.375
19.4,1708757880.390625
29.55,1708757880.40625
39.03,1708757880.421875
48.21,1708757880.4375
57.08,1708757880.453125
65.25,1708757880.46875
72.08,1708757880.484375
76.87,1708757880.5
79.22,1708757880.515625
79.22,1708757880.53125
77.57,1708757880.546875
75.5,1708757880.5625
74.38,1708757880.578125
75.26,1708757880.59375
78.43,1708757880.609375
83.33,1708757880.625
88.61,1708757880.640625
92.68,1708757880.65625
94.12,1708757880.671875
92.12,1708757880.6875
86.63,1708757880.703125
78.28,1708757880.71875
68.11,1708757880.734375
57.24,1708757880.75
46.57,1708757880.765625
36.62,1708757880.78125
27.47,1708757880.796875
18.82,1708757880.8125
10.21,1708757880.828125
1.15,1708757880.84375
-8.73,1708757880.859375
-19.6,1708757880.875
-31.45,1708757880.890625
-44.1,1708757880.90625
-57.34,1708757880.921875
-70.88,1708757880.9375
-84.33,1708757880.953125
-97.1,1708757880.96875
-108.28,1708757880.984375
-116.76,1708757881.0
-121.39,1708757881.015625
-121.28,1708757881.03125
-116.18,1708757881.046875
-106.56,1708757881.0625
-93.62,1708757881.078125
-78.88,1708757881.09375
-63.81,1708757881.109375
-49.5,1708757881.125
-36.52,1708757881.140625
-25.0,1708757881.15625
-14.87,1708757881.171875
-6.09,1708757881.1875
1.33,1708757881.203125
7.29,1708757881.21875
11.79,1708757881.234375
14.97,1708757881.25
17.16,1708757881.265625
18.73,1708757881.28125
20.04,1708757881.296875
21.31,1708757881.3125
22.59,1708757881.328125
23.84,1708757881.34375
24.97,1708757881.359375
25.95,1708757881.375
26.77,1708757881.390625
27.43,1708757881.40625
27.86,1708757881.421875
27.97,1708757881.4375
27.61,1708757881.453125
26.66,1708757881.46875
25.02,1708757881.484375
22.68,1708757881.5
19.61,1708757881.515625
15.82,1708757881.53125
11.35,1708757881.546875
6.29,1708757881.5625
0.8,1708757881.578125
-4.86,1708757881.59375
-10.46,1708757881.609375
-15.83,1708757881.625
-20.93,1708757881.640625
-25.88,1708757881.65625
-30.93,1708757881.671875
-36.39,1708757881.6875
-42.55,1708757881.703125
-49.52,1708757881.71875
-57.05,1708757881.734375
-64.43,1708757881.75
-70.53,1708757881.765625
-73.96,1708757881.78125
-73.53,1708757881.796875
-68.63,1708757881.8125
-59.4,1708757881.828125
-46.75,1708757881.84375
-32.09,1708757881.859375
-16.94,1708757881.875
-2.61,1708757881.890625
9.97,1708757881.90625
20.34,1708757881.921875
28.38,1708757881.9375
34.31,1708757881.953125
38.48,1708757881.96875
41.29,1708757881.984375
43.04,1708757882.0
43.93,1708757882.015625
44.06,1708757882.03125
43.53,1708757882.046875
42.47,1708757882.0625
41.12,1708757882.078125
39.7,1708757882.09375
38.31,1708757882.109375
37.01,1708757882.125
35.7,1708757882.140625
34.36,1708757882.15625
32.99,1708757882.171875
31.72,1708757882.1875
30.63,1708757882.203125
29.67,1708757882.21875
28.64,1708757882.234375
27.16,1708757882.25
24.81,1708757882.265625
21.33,1708757882.28125
16.69,1708757882.296875
11.14,1708757882.3125
5.16,1708757882.328125
-0.75,1708757882.34375
-6.28,1708757882.359375
-11.33,1708757882.375
-16.1,1708757882.390625
-20.9,1708757882.40625
-26.13,1708757882.421875
-32.07,1708757882.4375
-38.9,1708757882.453125
-46.56,1708757882.46875
-54.68,1708757882.484375
-62.48,1708757882.5
-68.77,1708757882.515625
-72.22,1708757882.53125
-71.66,1708757882.546875
-66.54,1708757882.5625
-57.16,1708757882.578125
-44.68,1708757882.59375
-30.74,1708757882.609375
-17.01,1708757882.625
-4.72,1708757882.640625
5.49,1708757882.65625
13.56,1708757882.671875
19.76,1708757882.6875
24.42,1708757882.703125
27.85,1708757882.71875
30.22,1708757882.734375
31.67,1708757882.75
32.33,1708757882.765625
32.37,1708757882.78125
32.03,1708757882.796875
31.52,1708757882.8125
31.06,1708757882.828125
30.84,1708757882.84375
31.04,1708757882.859375
31.69,1708757882.875
32.77,1708757882.890625
34.1,1708757882.90625
35.39,1708757882.921875
36.31,1708757882.9375
36.51,1708757882.953125
35.81,1708757882.96875
34.16,1708757882.984375
31.71,1708757883.0
28.75,1708757883.015625
25.58,1708757883.03125
22.39,1708757883.046875
19.2,1708757883.0625
15.84,1708757883.078125
12.1,1708757883.09375
7.84,1708757883.109375
3.06,1708757883.125
-2.04,1708757883.140625
-7.21,1708757883.15625
-12.26,1708757883.171875
-17.19,1708757883.1875
-22.2,1708757883.203125
-27.7,1708757883.21875
-34.06,1708757883.234375
-41.53,1708757883.25
-49.94,1708757883.265625
-58.59,1708757883.28125
-66.25,1708757883.296875
-71.37,1708757883.3125
-72.45,1708757883.328125
-68.54,1708757883.34375
-59.57,1708757883.359375
-46.44,1708757883.375
-30.79,1708757883.390625
-14.57,1708757883.40625
0.51,1708757883.421875
13.34,1708757883.4375
23.53,1708757883.453125
31.3,1708757883.46875
37.19,1708757883.484375
41.75,1708757883.5
45.4,1708757883.515625
48.27,1708757883.53125
50.37,1708757883.546875
51.65,1708757883.5625
52.14,1708757883.578125
51.98,1708757883.59375
51.39,1708757883.609375
50.53,1708757883.625
49.52,1708757883.640625
48.42,1708757883.65625
47.27,1708757883.671875
46.21,1708757883.6875
45.45,1708757883.703125
45.17,1708757883.71875
45.42,1708757883.734375
45.96,1708757883.75
46.31,1708757883.765625
45.92,1708757883.78125
44.39,1708757883.796875
41.59,1708757883.8125
37.71,1708757883.828125
33.15,1708757883.84375
28.32,1708757883.859375
23.47,1708757883.875
18.71,1708757883.890625
13.94,1708757883.90625
9.01,1708757883.921875
3.76,1708757883.9375
-1.87,1708757883.953125
-7.82,1708757883.96875
-13.91,1708757883.984375
-19.85,1708757884.0
-25.31,1708757884.015625
-30.09,1708757884.03125
-34.17,1708757884.046875
-37.87,1708757884.0625
-41.75,1708757884.078125
-46.49,1708757884.09375
-52.52,1708757884.109375
-59.79,1708757884.125
-67.6,1708757884.140625
-74.6,1708757884.15625
-79.19,1708757884.171875
-79.9,1708757884.1875
-75.89,1708757884.203125
-67.22,1708757884.21875
-54.83,1708757884.234375
-40.2,1708757884.25
-24.99,1708757884.265625
-10.59,1708757884.28125
2.15,1708757884.296875
12.92,1708757884.3125
21.81,1708757884.328125
29.1,1708757884.34375
35.08,1708757884.359375
39.94,1708757884.375
43.8,1708757884.390625
46.75,1708757884.40625
48.87,1708757884.421875
50.32,1708757884.4375
51.19,1708757884.453125
51.58,1708757884.46875
51.53,1708757884.484375
51.12,1708757884.5
50.47,1708757884.515625
49.81,1708757884.53125
49.36,1708757884.546875
49.24,1708757884.5625
49.39,1708757884.578125
49.49,1708757884.59375
49.11,1708757884.609375
47.85,1708757884.625
45.46,1708757884.640625
41.99,1708757884.65625
37.69,1708757884.671875
32.98,1708757884.6875
28.22,1708757884.703125
23.6,1708757884.71875
19.1,1708757884.734375
14.5,1708757884.75
9.58,1708757884.765625
4.21,1708757884.78125
-1.54,1708757884.796875
-7.42,1708757884.8125
-13.12,1708757884.828125
-18.42,1708757884.84375
-23.28,1708757884.859375
-27.92,1708757884.875
-32.72,1708757884.890625
-38.1,1708757884.90625
-44.34,1708757884.921875
-51.52,1708757884.9375
-59.32,1708757884.953125
-67.02,1708757884.96875
-73.51,1708757884.984375
-77.47,1708757885.0
-77.73,1708757885.015625
-73.6,1708757885.03125
-65.18,1708757885.046875
-53.32,1708757885.0625
-39.46,1708757885.078125
-25.23,1708757885.09375
-11.95,1708757885.109375
-0.47,1708757885.125
8.94,1708757885.140625
16.34,1708757885.15625
22.01,1708757885.171875
26.16,1708757885.1875
28.94,1708757885.203125
30.51,1708757885.21875
31.09,1708757885.234375
30.98,1708757885.25
30.52,1708757885.265625
30.05,1708757885.28125
29.71,1708757885.296875
29.53,1708757885.3125
29.41,1708757885.328125
29.22,1708757885.34375
28.93,1708757885.359375
28.66,1708757885.375
28.55,1708757885.390625
28.73,1708757885.40625
29.14,1708757885.421875
29.54,1708757885.4375
29.57,1708757885.453125
28.84,1708757885.46875
27.13,1708757885.484375
24.37,1708757885.5
20.72,1708757885.515625
16.48,1708757885.53125
12.01,1708757885.546875
7.66,1708757885.5625
3.64,1708757885.578125
-0.03,1708757885.59375
-3.52,1708757885.609375
-7.14,1708757885.625
-11.31,1708757885.640625
-16.38,1708757885.65625
-22.61,1708757885.671875
-30.04,1708757885.6875
-38.44,1708757885.703125
-47.26,1708757885.71875
-55.62,1708757885.734375
-62.38,1708757885.75
-66.35,1708757885.765625
-66.55,1708757885.78125
-62.56,1708757885.796875
-54.63,1708757885.8125
-43.71,1708757885.828125
-31.16,1708757885.84375
-18.45,1708757885.859375
-6.71,1708757885.875
3.38,1708757885.890625
11.66,1708757885.90625
18.29,1708757885.921875
23.59,1708757885.9375
27.84,1708757885.953125
31.19,1708757885.96875
33.7,1708757885.984375
35.38,1708757886.0
36.28,1708757886.015625
36.49,1708757886.03125
36.1,1708757886.046875
35.24,1708757886.0625
34.04,1708757886.078125
32.67,1708757886.09375
31.3,1708757886.109375
30.19,1708757886.125
29.48,1708757886.140625
29.17,1708757886.15625
29.09,1708757886.171875
28.93,1708757886.1875
28.36,1708757886.203125
27.11,1708757886.21875
25.09,1708757886.234375
22.35,1708757886.25
19.01,1708757886.265625
15.21,1708757886.28125
11.06,1708757886.296875
6.59,1708757886.3125
1.87,1708757886.328125
-3.05,1708757886.34375
-8.02,1708757886.359375
-12.9,1708757886.375
-17.58,1708757886.390625
-21.99,1708757886.40625
-26.14,1708757886.421875
-30.12,1708757886.4375
-34.04,1708757886.453125
-38.1,1708757886.46875
-42.59,1708757886.484375
-47.81,1708757886.5
-53.95,1708757886.515625
-60.85,1708757886.53125
-67.86,1708757886.546875
-73.83,1708757886.5625
-77.31,1708757886.578125
-77.03,1708757886.59375
-72.34,1708757886.609375
-63.48,1708757886.625
-51.48,1708757886.640625
-37.92,1708757886.65625
-24.38,1708757886.671875
-12.03,1708757886.6875
-1.47,1708757886.703125
7.23,1708757886.71875
14.38,1708757886.734375
20.39,1708757886.75
25.6,1708757886.765625
30.15,1708757886.78125
34.09,1708757886.796875
37.35,1708757886.8125
39.87,1708757886.828125
41.65,1708757886.84375
42.8,1708757886.859375
43.5,1708757886.875
43.95,1708757886.890625
44.36,1708757886.90625
44.89,1708757886.921875
45.61,1708757886.9375
46.54,1708757886.953125
47.62,1708757886.96875
48.72,1708757886.984375
49.64,1708757887.0
50.08,1708757887.015625
49.77,1708757887.03125
48.47,1708757887.046875
46.13,1708757887.0625
42.87,1708757887.078125
38.96,1708757887.09375
34.68,1708757887.109375
30.23,1708757887.125
25.63,1708757887.140625
20.78,1708757887.15625
15.53,1708757887.171875
9.85,1708757887.1875
3.85,1708757887.203125
-2.24,1708757887.21875
-8.17,1708757887.234375
-13.84,1708757887.25
-19.34,1708757887.265625
-25.01,1708757887.28125
-31.27,1708757887.296875
-38.46,1708757887.3125
-46.57,1708757887.328125
-55.03,1708757887.34375
-62.77,1708757887.359375
-68.38,1708757887.375
-70.6,1708757887.390625
-68.68,1708757887.40625
-62.64,1708757887.421875
-53.26,1708757887.4375
-41.84,1708757887.453125
-29.83,1708757887.46875
-18.43,1708757887.484375
-8.39,1708757887.5
0.03,1708757887.515625
6.93,1708757887.53125
12.6,1708757887.546875
17.28,1708757887.5625
21.08,1708757887.578125
23.96,1708757887.59375
25.84,1708757887.609375
26.69,1708757887.625
26.57,1708757887.640625
25.68,1708757887.65625
24.29,1708757887.671875
22.7,1708757887.6875
21.13,1708757887.703125
19.74,1708757887.71875
18.62,1708757887.734375
17.75,1708757887.75
17.09,1708757887.765625
16.54,1708757887.78125
15.97,1708757887.796875
15.22,1708757887.8125
14.13,1708757887.828125
12.49,1708757887.84375
10.11,1708757887.859375
6.88,1708757887.875
2.75,1708757887.890625
-2.16,1708757887.90625
-7.64,1708757887.921875
-13.38,1708757887.9375
-19.06,1708757887.953125
-24.38,1708757887.96875
-29.05,1708757887.984375
-32.91,1708757888.0
-35.93,1708757888.015625
-38.35,1708757888.03125
-40.62,1708757888.046875
-43.37,1708757888.0625
-47.1,1708757888.078125
-51.99,1708757888.09375
-57.62,1708757888.109375
-63.03,1708757888.125
-66.89,1708757888.140625
-67.92,1708757888.15625
-65.27,1708757888.171875
-58.74,1708757888.1875
-48.88,1708757888.203125
-36.74,1708757888.21875
-23.6,1708757888.234375
-10.69,1708757888.25
1.04,1708757888.265625
11.07,1708757888.28125
19.28,1708757888.296875
25.89,1708757888.3125
31.35,1708757888.328125
36.08,1708757888.34375
40.3,1708757888.359375
43.98,1708757888.375
46.81,1708757888.390625
48.43,1708757888.40625
48.64,1708757888.421875
47.54,1708757888.4375
45.5,1708757888.453125
43.11,1708757888.46875
40.92,1708757888.484375
39.23,1708757888.5
38.0,1708757888.515625
36.97,1708757888.53125
35.76,1708757888.546875
34.05,1708757888.5625
31.7,1708757888.578125
28.73,1708757888.59375
25.23,1708757888.609375
21.3,1708757888.625
16.95,1708757888.640625
12.15,1708757888.65625
6.87,1708757888.671875
1.19,1708757888.6875
-4.73,1708757888.703125
-10.63,1708757888.71875
-16.26,1708757888.734375
-21.34,1708757888.75
-25.65,1708757888.765625
-29.08,1708757888.78125
-31.68,1708757888.796875
-33.76,1708757888.8125
-35.86,1708757888.828125
-38.67,1708757888.84375
-42.8,1708757888.859375
-48.51,1708757888.875
-55.5,1708757888.890625
-62.83,1708757888.90625
-69.13,1708757888.921875
-72.85,1708757888.9375
-72.72,1708757888.953125
-68.16,1708757888.96875
-59.43,1708757888.984375
-47.58,1708757889.0
-34.17,1708757889.015625
-20.75,1708757889.03125
-8.55,1708757889.046875
1.81,1708757889.0625
10.24,1708757889.078125
17.0,1708757889.09375
22.49,1708757889.109375
27.01,1708757889.125
30.69,1708757889.140625
33.56,1708757889.15625
35.6,1708757889.171875
36.84,1708757889.1875
37.38,1708757889.203125
37.4,1708757889.21875
37.03,1708757889.234375
36.45,1708757889.25
35.79,1708757889.265625
35.18,1708757889.28125
34.78,1708757889.296875
34.73,1708757889.3125
35.04,1708757889.328125
35.58,1708757889.34375
35.99,1708757889.359375
35.81,1708757889.375
34.63,1708757889.390625
32.22,1708757889.40625
28.66,1708757889.421875
24.33,1708757889.4375
19.76,1708757889.453125
15.37,1708757889.46875
11.4,1708757889.484375
7.77,1708757889.5
4.2,1708757889.515625
0.39,1708757889.53125
-3.8,1708757889.546875
-8.31,1708757889.5625
-12.83,1708757889.578125
-16.99,1708757889.59375
-20.6,1708757889.609375
-23.65,1708757889.625
-26.38,1708757889.640625
-29.22,1708757889.65625
-32.59,1708757889.671875
-36.87,1708757889.6875
-42.24,1708757889.703125
-48.57,1708757889.71875
-55.34,1708757889.734375
-61.59,1708757889.75
-65.97,1708757889.765625
-67.12,1708757889.78125
-64.06,1708757889.796875
-56.59,1708757889.8125
-45.44,1708757889.828125
-32.08,1708757889.84375
-18.18,1708757889.859375
-5.16,1708757889.875
6.2,1708757889.890625
15.74,1708757889.90625
23.69,1708757889.921875
30.38,1708757889.9375
35.95,1708757889.953125
40.38,1708757889.96875
43.55,1708757889.984375
45.43,1708757890.0
46.16,1708757890.015625
45.97,1708757890.03125
45.19,1708757890.046875
44.07,1708757890.0625
42.78,1708757890.078125
41.43,1708757890.09375
40.09,1708757890.109375
38.87,1708757890.125
37.93,1708757890.140625
37.41,1708757890.15625
37.38,1708757890.171875
37.75,1708757890.1875
38.28,1708757890.203125
38.63,1708757890.21875
38.48,1708757890.234375
37.63,1708757890.25
36.03,1708757890.265625
33.77,1708757890.28125
31.04,1708757890.296875
28.01,1708757890.3125
24.84,1708757890.328125
21.55,1708757890.34375
18.13,1708757890.359375
14.42,1708757890.375
10.28,1708757890.390625
5.59,1708757890.40625
0.39,1708757890.421875
-5.13,1708757890.4375
-10.63,1708757890.453125
-15.79,1708757890.46875
-20.42,1708757890.484375
-24.49,1708757890.5
-28.24,1708757890.515625
-32.09,1708757890.53125
-36.52,1708757890.546875
-41.96,1708757890.5625
-48.57,1708757890.578125
-56.02,1708757890.59375
-63.47,1708757890.609375
-69.59,1708757890.625
-72.85,1708757890.640625
-72.0,1708757890.65625
-66.41,1708757890.671875
-56.29,1708757890.6875
-42.66,1708757890.703125
-27.02,1708757890.71875
-10.93,1708757890.734375
4.34,1708757890.75
18.0,1708757890.765625
29.75,1708757890.78125
39.67,1708757890.796875
48.08,1708757890.8125
55.39,1708757890.828125
61.97,1708757890.84375
68.1,1708757890.859375
73.93,1708757890.875
79.5,1708757890.890625
84.76,1708757890.90625
89.62,1708757890.921875
94.04,1708757890.9375
98.04,1708757890.953125
101.7,1708757890.96875
105.12,1708757890.984375
108.33,1708757891.0
111.25,1708757891.015625
113.68,1708757891.03125
115.31,1708757891.046875
115.79,1708757891.0625
114.82,1708757891.078125
112.23,1708757891.09375
108.15,1708757891.109375
102.95,1708757891.125
97.08,1708757891.140625
90.88,1708757891.15625
84.31,1708757891.171875
76.9,1708757891.1875
68.0,1708757891.203125
57.11,1708757891.21875
44.25,1708757891.234375
30.01,1708757891.25
15.47,1708757891.265625
1.67,1708757891.28125
-10.69,1708757891.296875
-21.53,1708757891.3125
-31.42,1708757891.328125
-41.41,1708757891.34375
-52.66,1708757891.359375
-66.06,1708757891.375
-81.85,1708757891.390625
-99.37,1708757891.40625
-117.0,1708757891.421875
-132.56,1708757891.4375
-143.92,1708757891.453125
-149.6,1708757891.46875
-149.21,1708757891.484375
-143.37,1708757891.5
-133.39,1708757891.515625
-120.74,1708757891.53125
-106.66,1708757891.546875
-92.07,1708757891.5625
-77.67,1708757891.578125
-64.15,1708757891.59375
-52.28,1708757891.609375
-42.83,1708757891.625
-36.38,1708757891.640625
-33.09,1708757891.65625
-32.58,1708757891.671875
-34.05,1708757891.6875
-36.44,1708757891.703125
-38.76,1708757891.71875
-40.28,1708757891.734375
-40.62,1708757891.75
-39.79,1708757891.765625
-38.15,1708757891.78125
-36.26,1708757891.796875
-34.78,1708757891.8125
-34.27,1708757891.828125
-35.12,1708757891.84375
-37.35,1708757891.859375
-40.68,1708757891.875
-44.62,1708757891.890625
-48.59,1708757891.90625
-52.19,1708757891.921875
-55.21,1708757891.9375
-57.66,1708757891.953125
-59.62,1708757891.96875
-61.22,1708757891.984375
-62.55,1708757892.0
-63.68,1708757892.015625
-64.68,1708757892.03125
-65.62,1708757892.046875
-66.55,1708757892.0625
-67.47,1708757892.078125
-68.36,1708757892.09375
-69.25,1708757892.109375
-70.23,1708757892.125
-71.48,1708757892.140625
-73.17,1708757892.15625
-75.33,1708757892.171875
-77.56,1708757892.1875
-79.1,1708757892.203125
-78.85,1708757892.21875
-75.74,1708757892.234375
-69.06,1708757892.25
-58.78,1708757892.265625
-45.6,1708757892.28125
-30.82,1708757892.296875
-16.03,1708757892.3125
-2.65,1708757892.328125
8.28,1708757892.34375
16.31,1708757892.359375
21.58,1708757892.375
24.63,1708757892.390625
26.19,1708757892.40625
26.95,1708757892.421875
27.39,1708757892.4375
27.74,1708757892.453125
28.07,1708757892.46875
28.36,1708757892.484375
28.71,1708757892.5
29.28,1708757892.515625
30.23,1708757892.53125
31.75,1708757892.546875
33.97,1708757892.5625
37.02,1708757892.578125
41.04,1708757892.59375
46.23,1708757892.609375
52.72,1708757892.625
60.42,1708757892.640625
68.92,1708757892.65625
77.5,1708757892.671875
85.31,1708757892.6875
91.63,1708757892.703125
96.08,1708757892.71875
98.7,1708757892.734375
99.85,1708757892.75
100.03,1708757892.765625
99.65,1708757892.78125
98.92,1708757892.796875
97.83,1708757892.8125
96.22,1708757892.828125
93.91,1708757892.84375
90.83,1708757892.859375
86.95,1708757892.875
82.38,1708757892.890625
77.2,1708757892.90625
71.46,1708757892.921875
65.13,1708757892.9375
58.12,1708757892.953125
50.32,1708757892.96875
41.58,1708757892.984375
31.82,1708757893.0
21.1,1708757893.015625
9.69,1708757893.03125
-1.79,1708757893.046875
-12.49,1708757893.0625
-21.33,1708757893.078125
-27.32,1708757893.09375
-29.77,1708757893.109375
-28.49,1708757893.125
-23.79,1708757893.140625
-16.45,1708757893.15625
-7.52,1708757893.171875
1.8,1708757893.1875
10.37,1708757893.203125
17.29,1708757893.21875
21.99,1708757893.234375
24.47,1708757893.25
25.13,1708757893.265625
24.77,1708757893.28125
24.24,1708757893.296875
24.23,1708757893.3125
25.03,1708757893.328125
26.59,1708757893.34375
28.62,1708757893.359375
30.89,1708757893.375
33.28,1708757893.390625
35.86,1708757893.40625
38.63,1708757893.421875
41.41,1708757893.4375
43.82,1708757893.453125
45.37,1708757893.46875
45.73,1708757893.484375
44.79,1708757893.5
42.58,1708757893.515625
39.09,1708757893.53125
34.09,1708757893.546875
27.33,1708757893.5625
18.89,1708757893.578125
9.59,1708757893.59375
1.0,1708757893.609375
-5.24,1708757893.625
-8.17,1708757893.640625
-8.27,1708757893.65625
-7.35,1708757893.671875
-7.8,1708757893.6875
-11.48,1708757893.703125
-18.99,1708757893.71875
-29.64,1708757893.734375
-42.14,1708757893.75
-55.34,1708757893.765625
-68.72,1708757893.78125
-82.09,1708757893.796875
-95.07,1708757893.8125
-106.65,1708757893.828125
-115.3,1708757893.84375
-119.42,1708757893.859375
-118.11,1708757893.875
-111.53,1708757893.890625
-100.81,1708757893.90625
-87.64,1708757893.921875
-73.61,1708757893.9375
-59.92,1708757893.953125
-47.24,1708757893.96875
-35.85,1708757893.984375
-25.89,1708757894.0
-17.47,1708757894.015625
-10.7,1708757894.03125
-5.62,1708757894.046875
-2.17,1708757894.0625
-0.1,1708757894.078125
0.94,1708757894.09375
1.33,1708757894.109375
1.48,1708757894.125
1.66,1708757894.140625
2.07,1708757894.15625
2.79,1708757894.171875
3.82,1708757894.1875
5.09,1708757894.203125
6.55,1708757894.21875
8.13,1708757894.234375
9.73,1708757894.25
11.3,1708757894.265625
12.67,1708757894.28125
13.69,1708757894.296875
14.15,1708757894.3125
13.91,1708757894.328125
12.83,1708757894.34375
10.86,1708757894.359375
7.94,1708757894.375
4.06,1708757894.390625
-0.7,1708757894.40625
-6.12,1708757894.421875
-11.79,1708757894.4375
-17.24,1708757894.453125
-22.07,1708757894.46875
-26.13,1708757894.484375
-29.68,1708757894.5
-33.3,1708757894.515625
-37.7,1708757894.53125
-43.4,1708757894.546875
-50.48,1708757894.5625
-58.45,1708757894.578125
-66.28,1708757894.59375
-72.63,1708757894.609375
-76.18,1708757894.625
-75.92,1708757894.640625
-71.38,1708757894.65625
-62.77,1708757894.671875
-50.85,1708757894.6875
-36.87,1708757894.703125
-22.25,1708757894.71875
-8.31,1708757894.734375
3.95,1708757894.75
14.05,1708757894.765625
21.95,1708757894.78125
27.95,1708757894.796875
32.47,1708757894.8125
35.81,1708757894.828125
38.13,1708757894.84375
39.45,1708757894.859375
39.75,1708757894.875
39.14,1708757894.890625
37.85,1708757894.90625
36.21,1708757894.921875
34.57,1708757894.9375
33.2,1708757894.953125
32.24,1708757894.96875
31.67,1708757894.984375
31.35,1708757895.0
31.1,1708757895.015625
30.75,1708757895.03125
30.13,1708757895.046875
29.13,1708757895.0625
27.67,1708757895.078125
25.73,1708757895.09375
23.35,1708757895.109375
20.58,1708757895.125
17.49,1708757895.140625
14.07,1708757895.15625
10.29,1708757895.171875
6.06,1708757895.1875
1.34,1708757895.203125
-3.79,1708757895.21875
-9.18,1708757895.234375
-14.57,1708757895.25
-19.74,1708757895.265625
-24.55,1708757895.28125
-29.07,1708757895.296875
-33.54,1708757895.3125
-38.35,1708757895.328125
-43.87,1708757895.34375
-50.24,1708757895.359375
-57.28,1708757895.375
-64.26,1708757895.390625
-70.08,1708757895.40625
-73.42,1708757895.421875
-73.14,1708757895.4375
-68.62,1708757895.453125
-59.91,1708757895.46875
-47.79,1708757895.484375
-33.48,1708757895.5
-18.4,1708757895.515625
-3.86,1708757895.53125
9.15,1708757895.546875
20.04,1708757895.5625
28.6,1708757895.578125
34.94,1708757895.59375
39.34,1708757895.609375
42.16,1708757895.625
43.73,1708757895.640625
44.34,1708757895.65625
44.23,1708757895.671875
43.61,1708757895.6875
42.65,1708757895.703125
41.52,1708757895.71875
40.33,1708757895.734375
39.14,1708757895.75
37.99,1708757895.765625
36.88,1708757895.78125
35.84,1708757895.796875
34.91,1708757895.8125
34.06,1708757895.828125
33.23,1708757895.84375
32.32,1708757895.859375
31.26,1708757895.875
30.02,1708757895.890625
28.59,1708757895.90625
26.91,1708757895.921875
24.79,1708757895.9375
21.94,1708757895.953125
18.08,1708757895.96875
13.1,1708757895.984375
7.19,1708757896.0
0.79,1708757896.015625
-5.51,1708757896.03125
-11.22,1708757896.046875
-16.08,1708757896.0625
-20.11,1708757896.078125
-23.6,1708757896.09375
-26.94,1708757896.109375
-30.57,1708757896.125
-34.82,1708757896.140625
-39.9,1708757896.15625
-45.84,1708757896.171875
-52.33,1708757896.1875
-58.67,1708757896.203125
-63.84,1708757896.21875
-66.65,1708757896.234375
-66.04,1708757896.25
-61.48,1708757896.265625
-53.13,1708757896.28125
-41.93,1708757896.296875
-29.28,1708757896.3125
-16.71,1708757896.328125
-5.39,1708757896.34375
4.05,1708757896.359375
11.54,1708757896.375
17.41,1708757896.390625
22.0,1708757896.40625
25.56,1708757896.421875
28.16,1708757896.4375
29.82,1708757896.453125
30.57,1708757896.46875
30.56,1708757896.484375
30.04,1708757896.5
29.27,1708757896.515625
28.49,1708757896.53125
27.81,1708757896.546875
27.28,1708757896.5625
26.9,1708757896.578125
26.67,1708757896.59375
26.56,1708757896.609375
26.52,1708757896.625
26.49,1708757896.640625
26.36,1708757896.65625
26.01,1708757896.671875
25.29,1708757896.6875
24.05,1708757896.703125
22.16,1708757896.71875
19.52,1708757896.734375
16.1,1708757896.75
12.0,1708757896.765625
7.39,1708757896.78125
2.52,1708757896.796875
-2.36,1708757896.8125
-7.07,1708757896.828125
-11.62,1708757896.84375
-16.15,1708757896.859375
-20.98,1708757896.875
-26.49,1708757896.890625
-32.89,1708757896.90625
-40.11,1708757896.921875
-47.61,1708757896.9375
-54.45,1708757896.953125
-59.42,1708757896.96875
-61.4,1708757896.984375
-59.67,1708757897.0
-54.1,1708757897.015625
-45.22,1708757897.03125
-34.02,1708757897.046875
-21.7,1708757897.0625
-9.45,1708757897.078125
1.81,1708757897.09375
11.46,1708757897.109375
19.27,1708757897.125
25.28,1708757897.140625
29.73,1708757897.15625
32.89,1708757897.171875
34.97,1708757897.1875
36.06,1708757897.203125
36.2,1708757897.21875
35.43,1708757897.234375
33.92,1708757897.25
31.96,1708757897.265625
29.92,1708757897.28125
28.16,1708757897.296875
26.88,1708757897.3125
26.09,1708757897.328125
25.63,1708757897.34375
25.22,1708757897.359375
24.61,1708757897.375
23.63,1708757897.390625
22.18,1708757897.40625
20.24,1708757897.421875
17.74,1708757897.4375
14.58,1708757897.453125
10.65,1708757897.46875
5.89,1708757897.484375
0.41,1708757897.5
-5.47,1708757897.515625
-11.3,1708757897.53125
-16.6,1708757897.546875
-21.06,1708757897.5625
-24.58,1708757897.578125
-27.21,1708757897.59375
-29.12,1708757897.609375
-30.5,1708757897.625
-31.66,1708757897.640625
-33.0,1708757897.65625
-35.01,1708757897.671875
-38.04,1708757897.6875
-42.03,1708757897.703125
-46.27,1708757897.71875
-49.41,1708757897.734375
-49.78,1708757897.75
-45.99,1708757897.765625
-37.51,1708757897.78125
-24.86,1708757897.796875
-9.59,1708757897.8125
6.33,1708757897.828125
21.07,1708757897.84375
33.39,1708757897.859375
42.83,1708757897.875
49.49,1708757897.890625
53.86,1708757897.90625
56.5,1708757897.921875
57.94,1708757897.9375
58.53,1708757897.953125
58.52,1708757897.96875
57.96,1708757897.984375
56.8,1708757898.0
54.89,1708757898.015625
52.11,1708757898.03125
48.47,1708757898.046875
44.18,1708757898.0625
39.6,1708757898.078125
35.13,1708757898.09375
31.06,1708757898.109375
27.52,1708757898.125
24.45,1708757898.140625
21.66,1708757898.15625
18.92,1708757898.171875
16.01,1708757898.1875
12.79,1708757898.203125
9.22,1708757898.21875
5.31,1708757898.234375
1.13,1708757898.25
-3.19,1708757898.265625
-7.53,1708757898.28125
-11.8,1708757898.296875
-15.91,1708757898.3125
-19.88,1708757898.328125
-23.76,1708757898.34375
-27.62,1708757898.359375
-31.46,1708757898.375
-35.25,1708757898.390625
-38.86,1708757898.40625
-42.2,1708757898.421875
-45.33,1708757898.4375
-48.47,1708757898.453125
-52.0,1708757898.46875
-56.29,1708757898.484375
-61.56,1708757898.5
-67.53,1708757898.515625
-73.42,1708757898.53125
-77.93,1708757898.546875
-79.6,1708757898.5625
-77.26,1708757898.578125
-70.44,1708757898.59375
-59.59,1708757898.609375
-45.97,1708757898.625
-31.25,1708757898.640625
-17.0,1708757898.65625
-4.28,1708757898.671875
6.44,1708757898.6875
15.2,1708757898.703125
22.26,1708757898.71875
27.88,1708757898.734375
32.14,1708757898.75
35.06,1708757898.765625
36.6,1708757898.78125
36.82,1708757898.796875
35.96,1708757898.8125
34.37,1708757898.828125
32.49,1708757898.84375
30.7,1708757898.859375
29.25,1708757898.875
28.24,1708757898.890625
27.71,1708757898.90625
27.62,1708757898.921875
27.93,1708757898.9375
28.58,1708757898.953125
29.43,1708757898.96875
30.21,1708757898.984375
30.65,1708757899.0
30.42,1708757899.015625
29.3,1708757899.03125
27.16,1708757899.046875
24.03,1708757899.0625
20.02,1708757899.078125
15.4,1708757899.09375
10.51,1708757899.109375
5.71,1708757899.125
1.28,1708757899.140625
-2.69,1708757899.15625
-6.34,1708757899.171875
-9.97,1708757899.1875
-13.98,1708757899.203125
-18.7,1708757899.21875
-24.29,1708757899.234375
-30.66,1708757899.25
-37.38,1708757899.265625
-43.71,1708757899.28125
-48.6,1708757899.296875
-50.94,1708757899.3125
-49.87,1708757899.328125
-45.04,1708757899.34375
-36.79,1708757899.359375
-26.05,1708757899.375
-14.08,1708757899.390625
-2.06,1708757899.40625
9.06,1708757899.421875
18.78,1708757899.4375
26.85,1708757899.453125
33.24,1708757899.46875
37.97,1708757899.484375
41.11,1708757899.5
42.8,1708757899.515625
43.27,1708757899.53125
42.83,1708757899.546875
41.8,1708757899.5625
40.44,1708757899.578125
38.91,1708757899.59375
37.24,1708757899.609375
35.44,1708757899.625
33.53,1708757899.640625
31.51,1708757899.65625
29.46,1708757899.671875
27.38,1708757899.6875
25.24,1708757899.703125
22.95,1708757899.71875
20.44,1708757899.734375
17.66,1708757899.75
14.69,1708757899.765625
11.57,1708757899.78125
8.25,1708757899.796875
4.56,1708757899.8125
0.28,1708757899.828125
-4.76,1708757899.84375
-10.5,1708757899.859375
-16.69,1708757899.875
-22.9,1708757899.890625
-28.8,1708757899.90625
-34.28,1708757899.921875
-39.55,1708757899.9375
-44.99,1708757899.953125
-51.07,1708757899.96875
-58.01,1708757899.984375
-65.61,1708757900.0
-73.24,1708757900.015625
-79.82,1708757900.03125
-84.11,1708757900.046875
-84.97,1708757900.0625
-81.72,1708757900.078125
-74.29,1708757900.09375
-63.27,1708757900.109375
-49.75,1708757900.125
-35.08,1708757900.140625
-20.56,1708757900.15625
-7.27,1708757900.171875
4.06,1708757900.1875
13.12,1708757900.203125
19.91,1708757900.21875
24.74,1708757900.234375
28.03,1708757900.25
30.25,1708757900.265625
31.76,1708757900.28125
32.8,1708757900.296875
33.49,1708757900.3125
33.82,1708757900.328125
33.77,1708757900.34375
33.37,1708757900.359375
32.69,1708757900.375
31.87,1708757900.390625
31.04,1708757900.40625
30.31,1708757900.421875
29.72,1708757900.4375
29.28,1708757900.453125
28.92,1708757900.46875
28.54,1708757900.484375
28.04,1708757900.5
27.22,1708757900.515625
25.83,1708757900.53125
23.64,1708757900.546875
20.48,1708757900.5625
16.32,1708757900.578125
11.31,1708757900.59375
5.78,1708757900.609375
0.1,1708757900.625
-5.39,1708757900.640625
-10.43,1708757900.65625
-14.89,1708757900.671875
-18.73,1708757900.6875
-22.06,1708757900.703125
-25.11,1708757900.71875
-28.31,1708757900.734375
-32.23,1708757900.75
-37.35,1708757900.765625
-43.82,1708757900.78125
-51.24,1708757900.796875
-58.54,1708757900.8125
-64.17,1708757900.828125
-66.55,1708757900.84375
-64.55,1708757900.859375
-57.92,1708757900.875
-47.34,1708757900.890625
-34.23,1708757900.90625
-20.27,1708757900.921875
-6.94,1708757900.9375
4.79,1708757900.953125
14.58,1708757900.96875
22.52,1708757900.984375
28.91,1708757901.0
34.04,1708757901.015625
38.05,1708757901.03125
40.98,1708757901.046875
42.84,1708757901.0625
43.72,1708757901.078125
43.76,1708757901.09375
43.16,1708757901.109375
42.02,1708757901.125
40.35,1708757901.140625
38.13,1708757901.15625
35.43,1708757901.171875
32.47,1708757901.1875
29.65,1708757901.203125
27.38,1708757901.21875
25.92,1708757901.234375
25.23,1708757901.25
24.97,1708757901.265625
24.64,1708757901.28125
23.8,1708757901.296875
22.15,1708757901.3125
19.58,1708757901.328125
16.11,1708757901.34375
11.85,1708757901.359375
6.96,1708757901.375
1.61,1708757901.390625
-3.93,1708757901.40625
-9.38,1708757901.421875
-14.46,1708757901.4375
-19.09,1708757901.453125
-23.36,1708757901.46875
-27.65,1708757901.484375
-32.45,1708757901.5
-38.22,1708757901.515625
-45.11,1708757901.53125
-52.83,1708757901.546875
-60.6,1708757901.5625
-67.22,1708757901.578125
-71.4,1708757901.59375
-72.09,1708757901.609375
-68.73,1708757901.625
-61.49,1708757901.640625
-51.17,1708757901.65625
-39.01,1708757901.671875
-26.37,1708757901.6875
-14.41,1708757901.703125
-3.83,1708757901.71875
5.07,1708757901.734375
12.35,1708757901.75
18.22,1708757901.765625
22.81,1708757901.78125
26.17,1708757901.796875
28.23,1708757901.8125
28.97,1708757901.828125
28.47,1708757901.84375
26.99,1708757901.859375
24.92,1708757901.875
22.68,1708757901.890625
20.55,1708757901.90625
18.67,1708757901.921875
16.97,1708757901.9375
15.36,1708757901.953125
13.76,1708757901.96875
12.28,1708757901.984375
11.15,1708757902.0
10.55,1708757902.015625
10.47,1708757902.03125
10.56,1708757902.046875
10.22,1708757902.0625
8.74,1708757902.078125
5.67,1708757902.09375
0.97,1708757902.109375
-4.89,1708757902.125
-11.11,1708757902.140625
-16.84,1708757902.15625
-21.52,1708757902.171875
-25.01,1708757902.1875
-27.55,1708757902.203125
-29.63,1708757902.21875
-31.68,1708757902.234375
-33.99,1708757902.25
-36.51,1708757902.265625
-38.94,1708757902.28125
-40.71,1708757902.296875
-40.99,1708757902.3125
-38.89,1708757902.328125
-33.62,1708757902.34375
-24.85,1708757902.359375
-12.89,1708757902.375
1.3,1708757902.390625
16.42,1708757902.40625
31.26,1708757902.421875
45.0,1708757902.4375
57.35,1708757902.453125
68.33,1708757902.46875
77.98,1708757902.484375
86.17,1708757902.5
92.62,1708757902.515625
97.04,1708757902.53125
99.27,1708757902.546875
99.47,1708757902.5625
98.34,1708757902.578125
97.2,1708757902.59375
97.87,1708757902.609375
102.04,1708757902.625
110.26,1708757902.640625
121.13,1708757902.65625
131.17,1708757902.671875
135.82,1708757902.6875
131.18,1708757902.703125
115.81,1708757902.71875
91.39,1708757902.734375
62.13,1708757902.75
32.99,1708757902.765625
7.87,1708757902.78125
-11.47,1708757902.796875
-25.27,1708757902.8125
-34.78,1708757902.828125
-41.25,1708757902.84375
-45.43,1708757902.859375
-47.66,1708757902.875
-48.35,1708757902.890625
-48.29,1708757902.90625
-48.51,1708757902.921875
-49.92,1708757902.9375
-52.92,1708757902.953125
-57.25,1708757902.96875
-62.28,1708757902.984375
-67.3,1708757903.0
-71.92,1708757903.015625
-76.14,1708757903.03125
-80.2,1708757903.046875
-84.16,1708757903.0625
-87.65,1708757903.078125
-89.76,1708757903.09375
-89.34,1708757903.109375
-85.41,1708757903.125
-77.6,1708757903.140625
-66.33,1708757903.15625
-52.72,1708757903.171875
-38.28,1708757903.1875
-24.5,1708757903.203125
-12.48,1708757903.21875
-2.76,1708757903.234375
4.65,1708757903.25
10.2,1708757903.265625
14.49,1708757903.28125
18.08,1708757903.296875
21.3,1708757903.3125
24.19,1708757903.328125
26.59,1708757903.34375
28.28,1708757903.359375
29.12,1708757903.375
29.15,1708757903.390625
28.55,1708757903.40625
27.54,1708757903.421875
26.31,1708757903.4375
24.9,1708757903.453125
23.3,1708757903.46875
21.47,1708757903.484375
19.41,1708757903.5
17.15,1708757903.515625
14.76,1708757903.53125
12.28,1708757903.546875
9.7,1708757903.5625
6.86,1708757903.578125
3.6,1708757903.59375
-0.26,1708757903.609375
-4.78,1708757903.625
-9.88,1708757903.640625
-15.31,1708757903.65625
-20.68,1708757903.671875
-25.67,1708757903.6875
-30.06,1708757903.703125
-33.92,1708757903.71875
-37.51,1708757903.734375
-41.31,1708757903.75
-45.76,1708757903.765625
-51.16,1708757903.78125
-57.43,1708757903.796875
-64.08,1708757903.8125
-70.19,1708757903.828125
-74.58,1708757903.84375
-76.03,1708757903.859375
-73.6,1708757903.875
-66.91,1708757903.890625
-56.32,1708757903.90625
-42.84,1708757903.921875
-27.9,1708757903.9375
-13.02,1708757903.953125
0.61,1708757903.96875
12.3,1708757903.984375
21.85,1708757904.0
29.41,1708757904.015625
35.25,1708757904.03125
39.57,1708757904.046875
42.51,1708757904.0625
44.15,1708757904.078125
44.56,1708757904.09375
43.93,1708757904.109375
42.52,1708757904.125
40.6,1708757904.140625
38.44,1708757904.15625
36.26,1708757904.171875
34.15,1708757904.1875
32.16,1708757904.203125
30.23,1708757904.21875
28.27,1708757904.234375
26.2,1708757904.25
24.06,1708757904.265625
21.85,1708757904.28125
19.6,1708757904.296875
17.23,1708757904.3125
14.55,1708757904.328125
11.3,1708757904.34375
7.26,1708757904.359375
2.37,1708757904.375
-3.17,1708757904.390625
-8.97,1708757904.40625
-14.55,1708757904.421875
-19.47,1708757904.4375
-23.55,1708757904.453125
-26.85,1708757904.46875
-29.67,1708757904.484375
-32.43,1708757904.5
-35.44,1708757904.515625
-38.82,1708757904.53125
-42.25,1708757904.546875
-44.98,1708757904.5625
-45.86,1708757904.578125
-43.52,1708757904.59375
-36.76,1708757904.609375
-24.95,1708757904.625
-8.27,1708757904.640625
12.22,1708757904.65625
34.89,1708757904.671875
57.87,1708757904.6875
79.55,1708757904.703125
98.78,1708757904.71875
114.93,1708757904.734375
127.76,1708757904.75
137.15,1708757904.765625
143.0,1708757904.78125
145.05,1708757904.796875
143.05,1708757904.8125
136.99,1708757904.828125
127.33,1708757904.84375
115.05,1708757904.859375
101.38,1708757904.875
87.53,1708757904.890625
74.25,1708757904.90625
61.78,1708757904.921875
49.99,1708757904.9375
38.67,1708757904.953125
27.61,1708757904.96875
16.72,1708757904.984375
5.78,1708757905.0
-5.49,1708757905.015625
-17.4,1708757905.03125
-29.92,1708757905.046875
-42.53,1708757905.0625
-54.32,1708757905.078125
-64.32,1708757905.09375
-71.97,1708757905.109375
-77.35,1708757905.125
-81.16,1708757905.140625
-84.33,1708757905.15625
-87.65,1708757905.171875
-91.62,1708757905.1875
-96.31,1708757905.203125
-101.52,1708757905.21875
-106.77,1708757905.234375
-111.36,1708757905.25
-114.39,1708757905.265625
-114.82,1708757905.28125
-111.67,1708757905.296875
-104.4,1708757905.3125
-93.18,1708757905.328125
-78.93,1708757905.34375
-63.14,1708757905.359375
-47.48,1708757905.375
-33.26,1708757905.390625
-21.15,1708757905.40625
-11.2,1708757905.421875
-3.04,1708757905.4375
3.78,1708757905.453125
9.49,1708757905.46875
14.12,1708757905.484375
17.6,1708757905.5
19.92,1708757905.515625
21.25,1708757905.53125
21.9,1708757905.546875
22.14,1708757905.5625
22.15,1708757905.578125
21.95,1708757905.59375
21.48,1708757905.609375
20.73,1708757905.625
19.83,1708757905.640625
19.03,1708757905.65625
18.56,1708757905.671875
18.49,1708757905.6875
18.59,1708757905.703125
18.36,1708757905.71875
17.21,1708757905.734375
14.71,1708757905.75
10.81,1708757905.765625
5.82,1708757905.78125
0.33,1708757905.796875
-5.09,1708757905.8125
-10.09,1708757905.828125
-14.65,1708757905.84375
-19.04,1708757905.859375
-23.69,1708757905.875
-29.05,1708757905.890625
-35.47,1708757905.90625
-43.02,1708757905.921875
-51.36,1708757905.9375
-59.63,1708757905.953125
-66.54,1708757905.96875
-70.59,1708757905.984375
-70.51,1708757906.0
-65.71,1708757906.015625
-56.52,1708757906.03125
-44.17,1708757906.046875
-30.38,1708757906.0625
-16.84,1708757906.078125
-4.75,1708757906.09375
5.38,1708757906.109375
13.67,1708757906.125
20.5,1708757906.140625
26.18,1708757906.15625
30.77,1708757906.171875
34.1,1708757906.1875
35.9,1708757906.203125
36.11,1708757906.21875
34.9,1708757906.234375
32.65,1708757906.25
29.86,1708757906.265625
26.99,1708757906.28125
24.34,1708757906.296875
22.08,1708757906.3125
20.36,1708757906.328125
19.3,1708757906.34375
19.05,1708757906.359375
19.69,1708757906.375
21.13,1708757906.390625
23.08,1708757906.40625
25.02,1708757906.421875
26.31,1708757906.4375
26.4,1708757906.453125
24.96,1708757906.46875
21.94,1708757906.484375
17.61,1708757906.5
12.45,1708757906.515625
7.02,1708757906.53125
1.82,1708757906.546875
-2.8,1708757906.5625
-6.71,1708757906.578125
-10.07,1708757906.59375
-13.26,1708757906.609375
-16.83,1708757906.625
-21.28,1708757906.640625
-26.84,1708757906.65625
-33.24,1708757906.671875
-39.59,1708757906.6875
-44.61,1708757906.703125
-46.94,1708757906.71875
-45.53,1708757906.734375
-40.03,1708757906.75
-30.89,1708757906.765625
-19.2,1708757906.78125
-6.31,1708757906.796875
6.42,1708757906.8125
18.0,1708757906.828125
27.81,1708757906.84375
35.69,1708757906.859375
41.67,1708757906.875
45.95,1708757906.890625
48.75,1708757906.90625
50.26,1708757906.921875
50.62,1708757906.9375
49.94,1708757906.953125
48.34,1708757906.96875
46.01,1708757906.984375
43.17,1708757907.0
40.1,1708757907.015625
37.03,1708757907.03125
34.2,1708757907.046875
31.8,1708757907.0625
30.09,1708757907.078125
29.28,1708757907.09375
29.54,1708757907.109375
30.87,1708757907.125
33.04,1708757907.140625
35.54,1708757907.15625
37.74,1708757907.171875
39.05,1708757907.1875
39.06,1708757907.203125
37.73,1708757907.21875
35.28,1708757907.234375
32.14,1708757907.25
28.72,1708757907.265625
25.2,1708757907.28125
21.43,1708757907.296875
16.97,1708757907.3125
11.22,1708757907.328125
3.7,1708757907.34375
-5.72,1708757907.359375
-16.72,1708757907.375
-28.56,1708757907.390625
-40.2,1708757907.40625
-50.53,1708757907.421875
-58.5,1708757907.4375
-63.25,1708757907.453125
-64.29,1708757907.46875
-61.64,1708757907.484375
-55.88,1708757907.5
-48.13,1708757907.515625
-39.77,1708757907.53125
-32.07,1708757907.546875
-25.83,1708757907.5625
-21.16,1708757907.578125
-17.66,1708757907.59375
-14.68,1708757907.609375
-11.74,1708757907.625
-8.76,1708757907.640625
-5.98,1708757907.65625
-3.81,1708757907.671875
-2.5,1708757907.6875
-2.05,1708757907.703125
-2.19,1708757907.71875
-2.56,1708757907.734375
-2.86,1708757907.75
-2.89,1708757907.765625
-2.53,1708757907.78125
-1.72,1708757907.796875
-0.43,1708757907.8125
1.28,1708757907.828125
3.25,1708757907.84375
5.17,1708757907.859375
6.76,1708757907.875
7.83,1708757907.890625
8.32,1708757907.90625
8.27,1708757907.921875
7.68,1708757907.9375
6.49,1708757907.953125
4.53,1708757907.96875
1.68,1708757907.984375
-2.03,1708757908.0
-6.36,1708757908.015625
-10.97,1708757908.03125
-15.55,1708757908.046875
-19.92,1708757908.0625
-24.16,1708757908.078125
-28.5,1708757908.09375
-33.22,1708757908.109375
-38.57,1708757908.125
-44.68,1708757908.140625
-51.46,1708757908.15625
-58.5,1708757908.171875
-65.03,1708757908.1875
-69.95,1708757908.203125
-72.04,1708757908.21875
-70.25,1708757908.234375
-64.13,1708757908.25
-53.98,1708757908.265625
-40.89,1708757908.28125
-26.34,1708757908.296875
-11.83,1708757908.3125
1.52,1708757908.328125
13.18,1708757908.34375
23.04,1708757908.359375
31.26,1708757908.375
37.96,1708757908.390625
43.22,1708757908.40625
46.99,1708757908.421875
49.26,1708757908.4375
50.12,1708757908.453125
49.76,1708757908.46875
48.47,1708757908.484375
46.58,1708757908.5
44.43,1708757908.515625
42.34,1708757908.53125
40.56,1708757908.546875
39.26,1708757908.5625
38.44,1708757908.578125
37.97,1708757908.59375
37.66,1708757908.609375
37.34,1708757908.625
36.89,1708757908.640625
36.21,1708757908.65625
35.18,1708757908.671875
33.59,1708757908.6875
31.16,1708757908.703125
27.69,1708757908.71875
23.14,1708757908.734375
17.77,1708757908.75
12.03,1708757908.765625
6.34,1708757908.78125
0.99,1708757908.796875
-4.0,1708757908.8125
-8.81,1708757908.828125
-13.7,1708757908.84375
-18.9,1708757908.859375
-24.59,1708757908.875
-30.93,1708757908.890625
-38.06,1708757908.90625
-46.0,1708757908.921875
-54.49,1708757908.9375
-62.77,1708757908.953125
-69.69,1708757908.96875
-73.88,1708757908.984375
-74.17,1708757909.0
-70.04,1708757909.015625
-61.77,1708757909.03125
-50.44,1708757909.046875
-37.55,1708757909.0625
-24.59,1708757909.078125
-12.78,1708757909.09375
-2.83,1708757909.109375
4.96,1708757909.125
10.63,1708757909.140625
14.4,1708757909.15625
16.62,1708757909.171875
17.75,1708757909.1875
18.28,1708757909.203125
18.71,1708757909.21875
19.42,1708757909.234375
20.76,1708757909.25
22.96,1708757909.265625
26.2,1708757909.28125
30.63,1708757909.296875
36.26,1708757909.3125
42.93,1708757909.328125
50.29,1708757909.34375
57.91,1708757909.359375
65.31,1708757909.375
72.12,1708757909.390625
78.06,1708757909.40625
83.0,1708757909.421875
86.83,1708757909.4375
89.48,1708757909.453125
90.86,1708757909.46875
90.92,1708757909.484375
89.49,1708757909.5
86.34,1708757909.515625
81.16,1708757909.53125
73.76,1708757909.546875
64.25,1708757909.5625
53.11,1708757909.578125
41.17,1708757909.59375
29.23,1708757909.609375
17.74,1708757909.625
6.61,1708757909.640625
-4.65,1708757909.65625
-16.48,1708757909.671875
-28.81,1708757909.6875
-40.85,1708757909.703125
-51.21,1708757909.71875
-58.3,1708757909.734375
-60.61,1708757909.75
-56.96,1708757909.765625
-46.71,1708757909.78125
-30.12,1708757909.796875
-8.73,1708757909.8125
14.43,1708757909.828125
35.29,1708757909.84375
49.8,1708757909.859375
55.32,1708757909.875
51.56,1708757909.890625
40.59,1708757909.90625
25.9,1708757909.921875
11.02,1708757909.9375
-1.63,1708757909.953125
-11.02,1708757909.96875
-17.14,1708757909.984375
-20.3,1708757910.0
-20.81,1708757910.015625
-19.02,1708757910.03125
-15.54,1708757910.046875
-11.43,1708757910.0625
-7.87,1708757910.078125
-5.78,1708757910.09375
-5.38,1708757910.109375
-6.13,1708757910.125
-7.08,1708757910.140625
-7.37,1708757910.15625
-6.57,1708757910.171875
-4.92,1708757910.1875
-3.18,1708757910.203125
-2.24,1708757910.21875
-2.8,1708757910.234375
-5.1,1708757910.25
-8.87,1708757910.265625
-13.48,1708757910.28125
-18.2,1708757910.296875
-22.45,1708757910.3125
-26.03,1708757910.328125
-29.14,1708757910.34375
-32.29,1708757910.359375
-36.14,1708757910.375
-41.27,1708757910.390625
-47.91,1708757910.40625
-55.82,1708757910.421875
-64.15,1708757910.4375
-71.59,1708757910.453125
-76.63,1708757910.46875
-77.99,1708757910.484375
-75.01,1708757910.5
-67.78,1708757910.515625
-57.21,1708757910.53125
-44.7,1708757910.546875
-31.73,1708757910.5625
-19.53,1708757910.578125
-8.86,1708757910.59375
-0.03,1708757910.609375
7.01,1708757910.625
12.47,1708757910.640625
16.55,1708757910.65625
19.4,1708757910.671875
21.16,1708757910.6875
21.96,1708757910.703125
21.93,1708757910.71875
21.24,1708757910.734375
20.01,1708757910.75
18.34,1708757910.765625
16.25,1708757910.78125
13.79,1708757910.796875
11.07,1708757910.8125
8.38,1708757910.828125
6.06,1708757910.84375
4.47,1708757910.859375
3.81,1708757910.875
4.02,1708757910.890625
4.75,1708757910.90625
5.45,1708757910.921875
5.57,1708757910.9375
4.68,1708757910.953125
2.57,1708757910.96875
-0.71,1708757910.984375
-4.89,1708757911.0
-9.56,1708757911.015625
-14.31,1708757911.03125
-18.78,1708757911.046875
-22.76,1708757911.0625
-26.24,1708757911.078125
-29.41,1708757911.09375
-32.61,1708757911.109375
-36.27,1708757911.125
-40.86,1708757911.140625
-46.68,1708757911.15625
-53.66,1708757911.171875
-61.26,1708757911.1875
-68.35,1708757911.203125
-73.5,1708757911.21875
-75.32,1708757911.234375
-72.95,1708757911.25
-66.31,1708757911.265625
-56.13,1708757911.28125
-43.68,1708757911.296875
-30.4,1708757911.3125
-17.5,1708757911.328125
-5.84,1708757911.34375
4.08,1708757911.359375
12.06,1708757911.375
18.12,1708757911.390625
22.4,1708757911.40625
25.16,1708757911.421875
26.67,1708757911.4375
27.13,1708757911.453125
26.66,1708757911.46875
25.34,1708757911.484375
23.34,1708757911.5
20.95,1708757911.515625
18.59,1708757911.53125
16.65,1708757911.546875
15.35,1708757911.5625
14.6,1708757911.578125
14.13,1708757911.59375
13.65,1708757911.609375
13.06,1708757911.625
12.51,1708757911.640625
12.38,1708757911.65625
13.04,1708757911.671875
14.7,1708757911.6875
17.27,1708757911.703125
20.42,1708757911.71875
23.71,1708757911.734375
26.69,1708757911.75
29.0,1708757911.765625
30.38,1708757911.78125
30.73,1708757911.796875
30.04,1708757911.8125
28.41,1708757911.828125
26.06,1708757911.84375
23.19,1708757911.859375
19.98,1708757911.875
16.44,1708757911.890625
12.39,1708757911.90625
7.53,1708757911.921875
1.66,1708757911.9375
-5.15,1708757911.953125
-12.37,1708757911.96875
-19.02,1708757911.984375
-23.85,1708757912.0
-25.69,1708757912.015625
-23.77,1708757912.03125
-17.97,1708757912.046875
-8.95,1708757912.0625
2.12,1708757912.078125
13.82,1708757912.09375
24.87,1708757912.109375
34.37,1708757912.125
41.91,1708757912.140625
47.43,1708757912.15625
51.13,1708757912.171875
53.25,1708757912.1875
53.93,1708757912.203125
53.33,1708757912.21875
51.57,1708757912.234375
48.85,1708757912.25
45.43,1708757912.265625
41.55,1708757912.28125
37.46,1708757912.296875
33.34,1708757912.3125
29.34,1708757912.328125
25.58,1708757912.34375
22.13,1708757912.359375
19.01,1708757912.375
16.1,1708757912.390625
13.22,1708757912.40625
10.2,1708757912.421875
6.94,1708757912.4375
3.44,1708757912.453125
-0.25,1708757912.46875
-4.06,1708757912.484375
-7.99,1708757912.5
-12.12,1708757912.515625
-16.54,1708757912.53125
-21.29,1708757912.546875
-26.28,1708757912.5625
-31.33,1708757912.578125
-36.22,1708757912.59375
-40.8,1708757912.609375
-45.03,1708757912.625
-49.08,1708757912.640625
-53.23,1708757912.65625
-57.84,1708757912.671875
-63.11,1708757912.6875
-69.02,1708757912.703125
-75.08,1708757912.71875
-80.46,1708757912.734375
-84.06,1708757912.75
-84.8,1708757912.765625
-81.89,1708757912.78125
-75.11,1708757912.796875
-64.83,1708757912.8125
-51.96,1708757912.828125
-37.71,1708757912.84375
-23.37,1708757912.859375
-10.02,1708757912.875
1.6,1708757912.890625
11.18,1708757912.90625
18.71,1708757912.921875
24.4,1708757912.9375
28.51,1708757912.953125
31.26,1708757912.96875
32.75,1708757912.984375
33.06,1708757913.0
32.27,1708757913.015625
30.56,1708757913.03125
28.23,1708757913.046875
25.65,1708757913.0625
23.18,1708757913.078125
21.1,1708757913.09375
19.55,1708757913.109375
18.47,1708757913.125
17.76,1708757913.140625
17.24,1708757913.15625
16.79,1708757913.171875
16.36,1708757913.1875
15.83,1708757913.203125
15.01,1708757913.21875
13.53,1708757913.234375
10.97,1708757913.25
6.97,1708757913.265625
1.54,1708757913.28125
-4.95,1708757913.296875
-11.82,1708757913.3125
-18.28,1708757913.328125
-23.72,1708757913.34375
-27.84,1708757913.359375
-30.69,1708757913.375
-32.65,1708757913.390625
-34.34,1708757913.40625
-36.52,1708757913.421875
-39.88,1708757913.4375
-44.9,1708757913.453125
-51.48,1708757913.46875
-58.83,1708757913.484375
-65.6,1708757913.5
-70.12,1708757913.515625
-70.97,1708757913.53125
-67.42,1708757913.546875
-59.65,1708757913.5625
-48.64,1708757913.578125
-35.76,1708757913.59375
-22.33,1708757913.609375
-9.22,1708757913.625
3.19,1708757913.640625
14.89,1708757913.65625
25.91,1708757913.671875
36.07,1708757913.6875
44.93,1708757913.703125
51.93,1708757913.71875
56.7,1708757913.734375
59.19,1708757913.75
59.77,1708757913.765625
59.03,1708757913.78125
57.59,1708757913.796875
55.95,1708757913.8125
54.42,1708757913.828125
53.17,1708757913.84375
52.27,1708757913.859375
51.71,1708757913.875
51.39,1708757913.890625
51.12,1708757913.90625
50.68,1708757913.921875
49.9,1708757913.9375
48.65,1708757913.953125
46.79,1708757913.96875
44.18,1708757913.984375
40.59,1708757914.0
35.96,1708757914.015625
30.46,1708757914.03125
24.57,1708757914.046875
18.99,1708757914.0625
14.37,1708757914.078125
11.0,1708757914.09375
8.7,1708757914.109375
6.88,1708757914.125
4.78,1708757914.140625
1.82,1708757914.15625
-2.1,1708757914.171875
-6.61,1708757914.1875
-10.99,1708757914.203125
-14.41,1708757914.21875
-16.21,1708757914.234375
-15.95,1708757914.25
-13.44,1708757914.265625
-8.72,1708757914.28125
-2.13,1708757914.296875
5.66,1708757914.3125
13.62,1708757914.328125
20.74,1708757914.34375
26.56,1708757914.359375
31.61,1708757914.375
37.23,1708757914.390625
44.85,1708757914.40625
54.85,1708757914.421875
65.71,1708757914.4375
74.23,1708757914.453125
76.71,1708757914.46875
70.65,1708757914.484375
56.05,1708757914.5
35.44,1708757914.515625
12.87,1708757914.53125
-7.72,1708757914.546875
-23.84,1708757914.5625
-34.74,1708757914.578125
-40.91,1708757914.59375
-43.29,1708757914.609375
-42.61,1708757914.625
-39.4,1708757914.640625
-34.22,1708757914.65625
-28.06,1708757914.671875
-22.26,1708757914.6875
-18.23,1708757914.703125
-16.93,1708757914.71875
-18.53,1708757914.734375
-22.4,1708757914.75
-27.34,1708757914.765625
-32.08,1708757914.78125
-35.77,1708757914.796875
-38.22,1708757914.8125
-39.94,1708757914.828125
-41.82,1708757914.84375
-44.82,1708757914.859375
-49.54,1708757914.875
-56.03,1708757914.890625
-63.75,1708757914.90625
-71.75,1708757914.921875
-78.75,1708757914.9375
-83.47,1708757914.953125
-84.76,1708757914.96875
-81.9,1708757914.984375
-74.8,1708757915.0
-64.0,1708757915.015625
-50.64,1708757915.03125
-36.07,1708757915.046875
-21.62,1708757915.0625
-8.23,1708757915.078125
3.54,1708757915.09375
13.52,1708757915.109375
21.74,1708757915.125
28.25,1708757915.140625
33.08,1708757915.15625
36.29,1708757915.171875
38.04,1708757915.1875
38.55,1708757915.203125
38.17,1708757915.21875
37.25,1708757915.234375
36.05,1708757915.25
34.74,1708757915.265625
33.36,1708757915.28125
31.93,1708757915.296875
30.48,1708757915.3125
29.06,1708757915.328125
27.77,1708757915.34375
26.67,1708757915.359375
25.78,1708757915.375
24.98,1708757915.390625
24.07,1708757915.40625
22.74,1708757915.421875
20.7,1708757915.4375
17.76,1708757915.453125
13.91,1708757915.46875
9.28,1708757915.484375
4.11,1708757915.5
-1.33,1708757915.515625
-6.9,1708757915.53125
-12.55,1708757915.546875
-18.34,1708757915.5625
-24.43,1708757915.578125
-31.02,1708757915.59375
-38.26,1708757915.609375
-46.22,1708757915.625
-54.75,1708757915.640625
-63.36,1708757915.65625
-71.16,1708757915.671875
-76.96,1708757915.6875
-79.54,1708757915.703125
-77.92,1708757915.71875
-71.81,1708757915.734375
-61.67,1708757915.75
-48.7,1708757915.765625
-34.48,1708757915.78125
-20.58,1708757915.796875
-8.17,1708757915.8125
2.18,1708757915.828125
10.44,1708757915.84375
16.9,1708757915.859375
21.93,1708757915.875
25.75,1708757915.890625
28.44,1708757915.90625
29.99,1708757915.921875
30.39,1708757915.9375
29.76,1708757915.953125
28.36,1708757915.96875
26.48,1708757915.984375
24.41,1708757916.0
22.39,1708757916.015625
20.6,1708757916.03125
19.09,1708757916.046875
17.88,1708757916.0625
16.88,1708757916.078125
15.95,1708757916.09375
14.92,1708757916.109375
13.67,1708757916.125
12.22,1708757916.140625
10.73,1708757916.15625
9.52,1708757916.171875
8.92,1708757916.1875
9.21,1708757916.203125
10.59,1708757916.21875
13.06,1708757916.234375
16.52,1708757916.25
20.73,1708757916.265625
25.32,1708757916.28125
29.9,1708757916.296875
34.04,1708757916.3125
37.41,1708757916.328125
39.72,1708757916.34375
40.73,1708757916.359375
40.13,1708757916.375
37.6,1708757916.390625
32.93,1708757916.40625
26.31,1708757916.421875
18.54,1708757916.4375
10.96,1708757916.453125
5.21,1708757916.46875
2.57,1708757916.484375
3.55,1708757916.5
7.61,1708757916.515625
13.49,1708757916.53125
19.61,1708757916.546875
24.71,1708757916.5625
28.1,1708757916.578125
29.67,1708757916.59375
29.66,1708757916.609375
28.4,1708757916.625
26.15,1708757916.640625
23.12,1708757916.65625
19.55,1708757916.671875
15.77,1708757916.6875
12.13,1708757916.703125
8.95,1708757916.71875
6.39,1708757916.734375
4.44,1708757916.75
3.0,1708757916.765625
1.9,1708757916.78125
1.02,1708757916.796875
0.25,1708757916.8125
-0.5,1708757916.828125
-1.26,1708757916.84375
-1.97,1708757916.859375
-2.53,1708757916.875
-2.77,1708757916.890625
-2.63,1708757916.90625
-2.19,1708757916.921875
-1.78,1708757916.9375
-1.88,1708757916.953125
-2.98,1708757916.96875
-5.34,1708757916.984375
-8.92,1708757917.0
-13.37,1708757917.015625
-18.22,1708757917.03125
-23.13,1708757917.046875
-28.07,1708757917.0625
-33.32,1708757917.078125
-39.36,1708757917.09375
-46.59,1708757917.109375
-55.11,1708757917.125
-64.54,1708757917.140625
-73.94,1708757917.15625
-82.03,1708757917.171875
-87.41,1708757917.1875
-88.94,1708757917.203125
-85.98,1708757917.21875
-78.64,1708757917.234375
-67.68,1708757917.25
-54.28,1708757917.265625
-39.78,1708757917.28125
-25.33,1708757917.296875
-11.79,1708757917.3125
0.29,1708757917.328125
10.66,1708757917.34375
19.22,1708757917.359375
26.05,1708757917.375
31.37,1708757917.390625
35.4,1708757917.40625
38.41,1708757917.421875
40.56,1708757917.4375
41.93,1708757917.453125
42.55,1708757917.46875
42.51,1708757917.484375
42.02,1708757917.5
41.37,1708757917.515625
40.88,1708757917.53125
40.74,1708757917.546875
40.97,1708757917.5625
41.34,1708757917.578125
41.53,1708757917.59375
41.16,1708757917.609375
39.98,1708757917.625
37.91,1708757917.640625
35.03,1708757917.65625
31.57,1708757917.671875
27.74,1708757917.6875
23.71,1708757917.703125
19.5,1708757917.71875
15.11,1708757917.734375
10.49,1708757917.75
5.65,1708757917.765625
0.65,1708757917.78125
-4.4,1708757917.796875
-9.34,1708757917.8125
-14.05,1708757917.828125
-18.46,1708757917.84375
-22.58,1708757917.859375
-26.59,1708757917.875
-30.8,1708757917.890625
-35.62,1708757917.90625
-41.43,1708757917.921875
-48.41,1708757917.9375
-56.28,1708757917.953125
-64.15,1708757917.96875
-70.62,1708757917.984375
-74.13,1708757918.0
-73.42,1708757918.015625
-67.99,1708757918.03125
-58.23,1708757918.046875
-45.34,1708757918.0625
-30.83,1708757918.078125
-16.14,1708757918.09375
-2.35,1708757918.109375
9.97,1708757918.125
20.6,1708757918.140625
29.6,1708757918.15625
37.13,1708757918.171875
43.46,1708757918.1875
48.81,1708757918.203125
53.25,1708757918.21875
56.71,1708757918.234375
58.94,1708757918.25
59.78,1708757918.265625
59.31,1708757918.28125
57.98,1708757918.296875
56.47,1708757918.3125
55.46,1708757918.328125
55.3,1708757918.34375
56.0,1708757918.359375
57.2,1708757918.375
58.37,1708757918.390625
59.01,1708757918.40625
58.75,1708757918.421875
57.42,1708757918.4375
54.98,1708757918.453125
51.57,1708757918.46875
47.42,1708757918.484375
42.82,1708757918.5
38.08,1708757918.515625
33.42,1708757918.53125
28.93,1708757918.546875
24.58,1708757918.5625
20.22,1708757918.578125
15.66,1708757918.59375
10.7,1708757918.609375
5.2,1708757918.625
-0.86,1708757918.640625
-7.32,1708757918.65625
-13.98,1708757918.671875
-20.61,1708757918.6875
-27.16,1708757918.703125
-33.83,1708757918.71875
-40.93,1708757918.734375
-48.68,1708757918.75
-56.84,1708757918.765625
-64.56,1708757918.78125
-70.46,1708757918.796875
-73.04,1708757918.8125
-71.2,1708757918.828125
-64.72,1708757918.84375
-54.38,1708757918.859375
-41.68,1708757918.875
-28.34,1708757918.890625
-15.82,1708757918.90625
-4.98,1708757918.921875
3.93,1708757918.9375
11.06,1708757918.953125
16.73,1708757918.96875
21.22,1708757918.984375
24.67,1708757919.0
27.16,1708757919.015625
28.72,1708757919.03125
29.43,1708757919.046875
29.39,1708757919.0625
28.72,1708757919.078125
27.56,1708757919.09375
26.07,1708757919.109375
24.37,1708757919.125
22.61,1708757919.140625
20.8,1708757919.15625
18.92,1708757919.171875
16.87,1708757919.1875
14.53,1708757919.203125
11.87,1708757919.21875
8.89,1708757919.234375
5.64,1708757919.25
2.12,1708757919.265625
-1.66,1708757919.28125
-5.73,1708757919.296875
-10.06,1708757919.3125
-14.56,1708757919.328125
-19.03,1708757919.34375
-23.24,1708757919.359375
-26.95,1708757919.375
-30.09,1708757919.390625
-32.73,1708757919.40625
-35.16,1708757919.421875
-37.69,1708757919.4375
-40.54,1708757919.453125
-43.6,1708757919.46875
-46.43,1708757919.484375
-48.32,1708757919.5
-48.44,1708757919.515625
-46.04,1708757919.53125
-40.49,1708757919.546875
-31.38,1708757919.5625
-18.66,1708757919.578125
-2.84,1708757919.59375
14.8,1708757919.609375
32.25,1708757919.625
47.15,1708757919.640625
57.41,1708757919.65625
61.88,1708757919.671875
60.6,1708757919.6875
54.69,1708757919.703125
45.79,1708757919.71875
35.55,1708757919.734375
25.27,1708757919.75
15.89,1708757919.765625
8.07,1708757919.78125
2.35,1708757919.796875
-0.97,1708757919.8125
-1.94,1708757919.828125
-1.07,1708757919.84375
0.8,1708757919.859375
2.75,1708757919.875
4.07,1708757919.890625
4.45,1708757919.90625
3.88,1708757919.921875
2.6,1708757919.9375
0.8,1708757919.953125
-1.46,1708757919.96875
-4.27,1708757919.984375
-7.83,1708757920.0
-12.26,1708757920.015625
-17.56,1708757920.03125
-23.46,1708757920.046875
-29.63,1708757920.0625
-35.71,1708757920.078125
-41.51,1708757920.09375
-47.11,1708757920.109375
-52.84,1708757920.125
-59.09,1708757920.140625
-66.13,1708757920.15625
-73.78,1708757920.171875
-81.24,1708757920.1875
-87.21,1708757920.203125
-90.18,1708757920.21875
-88.91,1708757920.234375
-82.86,1708757920.25
-72.46,1708757920.265625
-58.95,1708757920.28125
-43.97,1708757920.296875
-29.1,1708757920.3125
-15.47,1708757920.328125
-3.63,1708757920.34375
6.37,1708757920.359375
14.75,1708757920.375
21.77,1708757920.390625
27.57,1708757920.40625
32.2,1708757920.421875
35.58,1708757920.4375
37.75,1708757920.453125
38.81,1708757920.46875
39.03,1708757920.484375
38.71,1708757920.5
38.08,1708757920.515625
37.22,1708757920.53125
36.12,1708757920.546875
34.73,1708757920.5625
33.09,1708757920.578125
31.38,1708757920.59375
29.89,1708757920.609375
28.83,1708757920.625
28.23,1708757920.640625
27.86,1708757920.65625
27.31,1708757920.671875
26.12,1708757920.6875
23.89,1708757920.703125
20.44,1708757920.71875
15.87,1708757920.734375
10.43,1708757920.75
4.6,1708757920.765625
-1.17,1708757920.78125
-6.6,1708757920.796875
-11.66,1708757920.8125
-16.66,1708757920.828125
-22.11,1708757920.84375
-28.54,1708757920.859375
-36.25,1708757920.875
-45.12,1708757920.890625
-54.51,1708757920.90625
-63.32,1708757920.921875
-70.17,1708757920.9375
-73.71,1708757920.953125
-72.98,1708757920.96875
-67.67,1708757920.984375
-58.28,1708757921.0
-45.92,1708757921.015625
-32.1,1708757921.03125
-18.25,1708757921.046875
-5.47,1708757921.0625
5.61,1708757921.078125
14.84,1708757921.09375
22.35,1708757921.109375
28.38,1708757921.125
33.13,1708757921.140625
36.8,1708757921.15625
39.56,1708757921.171875
41.53,1708757921.1875
42.85,1708757921.203125
43.61,1708757921.21875
43.83,1708757921.234375
43.52,1708757921.25
42.76,1708757921.265625
41.7,1708757921.28125
40.59,1708757921.296875
39.72,1708757921.3125
39.33,1708757921.328125
39.49,1708757921.34375
40.04,1708757921.359375
40.66,1708757921.375
40.91,1708757921.390625
40.38,1708757921.40625
38.82,1708757921.421875
36.15,1708757921.4375
32.53,1708757921.453125
28.18,1708757921.46875
23.4,1708757921.484375
18.38,1708757921.5
13.19,1708757921.515625
7.77,1708757921.53125
2.07,1708757921.546875
-3.85,1708757921.5625
-9.78,1708757921.578125
-15.35,1708757921.59375
-20.19,1708757921.609375
-24.13,1708757921.625
-27.26,1708757921.640625
-30.01,1708757921.65625
-33.05,1708757921.671875
-37.05,1708757921.6875
-42.43,1708757921.703125
-49.03,1708757921.71875
-56.09,1708757921.734375
-62.22,1708757921.75
-65.76,1708757921.765625
-65.17,1708757921.78125
-59.67,1708757921.796875
-49.46,1708757921.8125
-35.79,1708757921.828125
-20.61,1708757921.84375
-5.98,1708757921.859375
6.53,1708757921.875
16.18,1708757921.890625
22.98,1708757921.90625
27.51,1708757921.921875
30.44,1708757921.9375
32.31,1708757921.953125
33.38,1708757921.96875
33.81,1708757921.984375
33.73,1708757922.0
33.38,1708757922.015625
33.05,1708757922.03125
32.96,1708757922.046875
33.18,1708757922.0625
33.58,1708757922.078125
33.93,1708757922.09375
34.01,1708757922.109375
33.69,1708757922.125
32.98,1708757922.140625
31.95,1708757922.15625
30.69,1708757922.171875
29.22,1708757922.1875
27.46,1708757922.203125
25.33,1708757922.21875
22.72,1708757922.234375
19.6,1708757922.25
16.01,1708757922.265625
12.05,1708757922.28125
7.84,1708757922.296875
3.49,1708757922.3125
-0.93,1708757922.328125
-5.39,1708757922.34375
-9.89,1708757922.359375
-14.48,1708757922.375
-19.11,1708757922.390625
-23.74,1708757922.40625
-28.29,1708757922.421875
-32.73,1708757922.4375
-37.14,1708757922.453125
-41.81,1708757922.46875
-47.09,1708757922.484375
-53.32,1708757922.5
-60.45,1708757922.515625
-67.95,1708757922.53125
-74.73,1708757922.546875
-79.37,1708757922.5625
-80.58,1708757922.578125
-77.56,1708757922.59375
-70.34,1708757922.609375
-59.72,1708757922.625
-47.03,1708757922.640625
-33.76,1708757922.65625
-21.13,1708757922.671875
-9.91,1708757922.6875
-0.43,1708757922.703125
7.38,1708757922.71875
13.8,1708757922.734375
19.1,1708757922.75
23.58,1708757922.765625
27.4,1708757922.78125
30.66,1708757922.796875
33.43,1708757922.8125
35.77,1708757922.828125
37.78,1708757922.84375
39.55,1708757922.859375
41.12,1708757922.875
42.46,1708757922.890625
43.47,1708757922.90625
44.03,1708757922.921875
44.15,1708757922.9375
43.96,1708757922.953125
43.62,1708757922.96875
43.21,1708757922.984375
42.63,1708757923.0
41.58,1708757923.015625
39.69,1708757923.03125
36.77,1708757923.046875
32.9,1708757923.0625
28.44,1708757923.078125
23.84,1708757923.09375
19.47,1708757923.109375
15.36,1708757923.125
11.32,1708757923.140625
7.08,1708757923.15625
2.46,1708757923.171875
-2.48,1708757923.1875
-7.44,1708757923.203125
-12.07,1708757923.21875
-16.15,1708757923.234375
-19.78,1708757923.25
-23.33,1708757923.265625
-27.45,1708757923.28125
-32.78,1708757923.296875
-39.69,1708757923.3125
-48.04,1708757923.328125
-57.06,1708757923.34375
-65.45,1708757923.359375
-71.68,1708757923.375
-74.4,1708757923.390625
-72.78,1708757923.40625
-66.76,1708757923.421875
-57.02,1708757923.4375
-44.76,1708757923.453125
-31.36,1708757923.46875
-18.09,1708757923.484375
-5.81,1708757923.5
5.01,1708757923.515625
14.22,1708757923.53125
21.84,1708757923.546875
27.9,1708757923.5625
32.39,1708757923.578125
35.3,1708757923.59375
36.7,1708757923.609375
36.84,1708757923.625
36.14,1708757923.640625
35.03,1708757923.65625
33.88,1708757923.671875
32.88,1708757923.6875
32.0,1708757923.703125
31.12,1708757923.71875
30.16,1708757923.734375
29.12,1708757923.75
28.14,1708757923.765625
27.37,1708757923.78125
26.88,1708757923.796875
26.53,1708757923.8125
25.97,1708757923.828125
24.74,1708757923.84375
22.42,1708757923.859375
18.79,1708757923.875
13.98,1708757923.890625
8.36,1708757923.90625
2.45,1708757923.921875
-3.29,1708757923.9375
-8.64,1708757923.953125
-13.56,1708757923.96875
-18.25,1708757923.984375
-22.95,1708757924.0
-27.99,1708757924.015625
-33.61,1708757924.03125
-40.01,1708757924.046875
-47.1,1708757924.0625
-54.38,1708757924.078125
-60.93,1708757924.09375
-65.48,1708757924.109375
-66.8,1708757924.125
-64.11,1708757924.140625
-57.36,1708757924.15625
-47.32,1708757924.171875
-35.25,1708757924.1875
-22.56,1708757924.203125
-10.38,1708757924.21875
0.58,1708757924.234375
10.03,1708757924.25
17.92,1708757924.265625
24.26,1708757924.28125
29.07,1708757924.296875
32.38,1708757924.3125
34.28,1708757924.328125
35.04,1708757924.34375
35.05,1708757924.359375
34.72,1708757924.375
34.41,1708757924.390625
34.22,1708757924.40625
34.14,1708757924.421875
33.95,1708757924.4375
33.5,1708757924.453125
32.72,1708757924.46875
31.75,1708757924.484375
30.8,1708757924.5
29.99,1708757924.515625
29.23,1708757924.53125
28.18,1708757924.546875
26.37,1708757924.5625
23.44,1708757924.578125
19.3,1708757924.59375
14.24,1708757924.609375
8.78,1708757924.625
3.44,1708757924.640625
-1.53,1708757924.65625
-6.28,1708757924.671875
-11.23,1708757924.6875
-16.97,1708757924.703125
-23.89,1708757924.71875
-31.99,1708757924.734375
-40.78,1708757924.75
-49.24,1708757924.765625
-56.1,1708757924.78125
-60.05,1708757924.796875
-60.16,1708757924.8125
-56.07,1708757924.828125
-48.11,1708757924.84375
-37.18,1708757924.859375
-24.47,1708757924.875
-11.22,1708757924.890625
1.54,1708757924.90625
13.05,1708757924.921875
22.85,1708757924.9375
30.73,1708757924.953125
36.63,1708757924.96875
40.62,1708757924.984375
42.87,1708757925.0
43.59,1708757925.015625
43.0,1708757925.03125
41.3,1708757925.046875
38.71,1708757925.0625
35.45,1708757925.078125
31.74,1708757925.09375
27.78,1708757925.109375
23.77,1708757925.125
19.9,1708757925.140625
16.39,1708757925.15625
13.37,1708757925.171875
10.96,1708757925.1875
9.09,1708757925.203125
7.51,1708757925.21875
5.87,1708757925.234375
3.76,1708757925.25
0.97,1708757925.265625
-2.55,1708757925.28125
-6.57,1708757925.296875
-10.68,1708757925.3125
-14.47,1708757925.328125
-17.61,1708757925.34375
-19.99,1708757925.359375
-21.76,1708757925.375
-23.32,1708757925.390625
-25.25,1708757925.40625
-28.15,1708757925.421875
-32.33,1708757925.4375
-37.65,1708757925.453125
-43.28,1708757925.46875
-47.89,1708757925.484375
-49.99,1708757925.5
-48.4,1708757925.515625
-42.62,1708757925.53125
-33.01,1708757925.546875
-20.63,1708757925.5625
-6.87,1708757925.578125
6.92,1708757925.59375
19.71,1708757925.609375
30.84,1708757925.625
39.98,1708757925.640625
46.96,1708757925.65625
51.63,1708757925.671875
53.96,1708757925.6875
54.03,1708757925.703125
52.11,1708757925.71875
48.7,1708757925.734375
44.41,1708757925.75
39.85,1708757925.765625
35.44,1708757925.78125
31.37,1708757925.796875
27.67,1708757925.8125
24.35,1708757925.828125
21.52,1708757925.84375
19.47,1708757925.859375
18.51,1708757925.875
18.81,1708757925.890625
20.18,1708757925.90625
22.12,1708757925.921875
23.93,1708757925.9375
24.95,1708757925.953125
24.75,1708757925.96875
23.29,1708757925.984375
20.88,1708757926.0
17.96,1708757926.015625
15.02,1708757926.03125
12.34,1708757926.046875
10.0,1708757926.0625
7.82,1708757926.078125
5.48,1708757926.09375
2.55,1708757926.109375
-1.36,1708757926.125
-6.53,1708757926.140625
-12.97,1708757926.15625
-20.31,1708757926.171875
-27.68,1708757926.1875
-33.89,1708757926.203125
-37.65,1708757926.21875
-38.07,1708757926.234375
-34.91,1708757926.25
-28.74,1708757926.265625
-20.68,1708757926.28125
-12.01,1708757926.296875
-3.81,1708757926.3125
3.24,1708757926.328125
8.83,1708757926.34375
12.9,1708757926.359375
15.52,1708757926.375
16.84,1708757926.390625
17.13,1708757926.40625
16.76,1708757926.421875
16.11,1708757926.4375
15.43,1708757926.453125
14.85,1708757926.46875
14.36,1708757926.484375
13.88,1708757926.5
13.41,1708757926.515625
12.94,1708757926.53125
12.49,1708757926.546875
12.0,1708757926.5625
11.4,1708757926.578125
10.62,1708757926.59375
9.66,1708757926.609375
8.55,1708757926.625
7.33,1708757926.640625
5.98,1708757926.65625
4.33,1708757926.671875
2.15,1708757926.6875
-0.73,1708757926.703125
-4.32,1708757926.71875
-8.41,1708757926.734375
-12.66,1708757926.75
-16.73,1708757926.765625
-20.43,1708757926.78125
-23.79,1708757926.796875
-27.05,1708757926.8125
-30.52,1708757926.828125
-34.48,1708757926.84375
-39.14,1708757926.859375
-44.58,1708757926.875
-50.65,1708757926.890625
-56.83,1708757926.90625
-62.21,1708757926.921875
-65.56,1708757926.9375
-65.64,1708757926.953125
-61.57,1708757926.96875
-53.29,1708757926.984375
-41.56,1708757927.0
-27.87,1708757927.015625
-13.86,1708757927.03125
-0.94,1708757927.046875
10.1,1708757927.0625
19.05,1708757927.078125
26.16,1708757927.09375
31.79,1708757927.109375
36.22,1708757927.125
39.66,1708757927.140625
42.14,1708757927.15625
43.68,1708757927.171875
44.25,1708757927.1875
43.87,1708757927.203125
42.65,1708757927.21875
40.82,1708757927.234375
38.72,1708757927.25
36.7,1708757927.265625
35.06,1708757927.28125
33.9,1708757927.296875
33.12,1708757927.3125
32.47,1708757927.328125
31.69,1708757927.34375
30.61,1708757927.359375
29.16,1708757927.375
27.35,1708757927.390625
25.11,1708757927.40625
22.34,1708757927.421875
18.79,1708757927.4375
14.28,1708757927.453125
8.75,1708757927.46875
2.35,1708757927.484375
-4.58,1708757927.5
-11.61,1708757927.515625
-18.39,1708757927.53125
-24.77,1708757927.546875
-30.81,1708757927.5625
-36.71,1708757927.578125
-42.63,1708757927.59375
-48.69,1708757927.609375
-54.86,1708757927.625
-61.02,1708757927.640625
-66.91,1708757927.65625
-72.06,1708757927.671875
-75.72,1708757927.6875
-76.89,1708757927.703125
-74.51,1708757927.71875
-67.85,1708757927.734375
-56.81,1708757927.75
-42.18,1708757927.765625
-25.46,1708757927.78125
-8.47,1708757927.796875
7.2,1708757927.8125
20.57,1708757927.828125
31.34,1708757927.84375
39.75,1708757927.859375
46.21,1708757927.875
51.09,1708757927.890625
54.6,1708757927.90625
56.81,1708757927.921875
57.81,1708757927.9375
57.8,1708757927.953125
57.01,1708757927.96875
55.7,1708757927.984375
54.04,1708757928.0
52.12,1708757928.015625
49.99,1708757928.03125
47.77,1708757928.046875
45.66,1708757928.0625
43.86,1708757928.078125
42.5,1708757928.09375
41.48,1708757928.109375
40.45,1708757928.125
38.92,1708757928.140625
36.48,1708757928.15625
33.01,1708757928.171875
28.67,1708757928.1875
23.9,1708757928.203125
19.1,1708757928.21875
14.51,1708757928.234375
10.07,1708757928.25
5.5,1708757928.265625
0.56,1708757928.28125
-4.79,1708757928.296875
-10.36,1708757928.3125
-15.82,1708757928.328125
-20.89,1708757928.34375
-25.47,1708757928.359375
-29.65,1708757928.375
-33.71,1708757928.390625
-38.01,1708757928.40625
-42.9,1708757928.421875
-48.58,1708757928.4375
-55.07,1708757928.453125
-62.01,1708757928.46875
-68.66,1708757928.484375
-73.93,1708757928.5
-76.62,1708757928.515625
-75.71,1708757928.53125
-70.74,1708757928.546875
-61.97,1708757928.5625
-50.35,1708757928.578125
-37.27,1708757928.59375
-24.15,1708757928.609375
-12.14,1708757928.625
-1.91,1708757928.640625
6.35,1708757928.65625
12.84,1708757928.671875
17.87,1708757928.6875
21.8,1708757928.703125
24.88,1708757928.71875
27.23,1708757928.734375
28.92,1708757928.75
29.96,1708757928.765625
30.38,1708757928.78125
30.23,1708757928.796875
29.71,1708757928.8125
29.0,1708757928.828125
28.34,1708757928.84375
27.89,1708757928.859375
27.66,1708757928.875
27.58,1708757928.890625
27.43,1708757928.90625
27.01,1708757928.921875
26.17,1708757928.9375
24.89,1708757928.953125
23.23,1708757928.96875
21.27,1708757928.984375
19.14,1708757929.0
16.86,1708757929.015625
14.36,1708757929.03125
11.54,1708757929.046875
8.26,1708757929.0625
4.48,1708757929.078125
0.23,1708757929.09375
-4.37,1708757929.109375
-9.09,1708757929.125
-13.72,1708757929.140625
-18.12,1708757929.15625
-22.25,1708757929.171875
-26.22,1708757929.1875
-30.28,1708757929.203125
-34.78,1708757929.21875
-39.97,1708757929.234375
-45.88,1708757929.25
-52.15,1708757929.265625
-57.95,1708757929.28125
-62.2,1708757929.296875
-63.77,1708757929.3125
-61.87,1708757929.328125
-56.32,1708757929.34375
-47.61,1708757929.359375
-36.69,1708757929.375
-24.76,1708757929.390625
-12.92,1708757929.40625
-2.0,1708757929.421875
7.51,1708757929.4375
15.4,1708757929.453125
21.65,1708757929.46875
26.31,1708757929.484375
29.56,1708757929.5
31.63,1708757929.515625
32.78,1708757929.53125
33.27,1708757929.546875
33.32,1708757929.5625
33.05,1708757929.578125
32.57,1708757929.59375
32.0,1708757929.609375
31.49,1708757929.625
31.18,1708757929.640625
31.14,1708757929.65625
31.34,1708757929.671875
31.62,1708757929.6875
31.73,1708757929.703125
31.44,1708757929.71875
30.63,1708757929.734375
29.29,1708757929.75
27.52,1708757929.765625
25.45,1708757929.78125
23.12,1708757929.796875
20.48,1708757929.8125
17.38,1708757929.828125
13.65,1708757929.84375
9.25,1708757929.859375
4.28,1708757929.875
-0.98,1708757929.890625
-6.22,1708757929.90625
-11.16,1708757929.921875
-15.66,1708757929.9375
-19.76,1708757929.953125
-23.68,1708757929.96875
-27.72,1708757929.984375
-32.24,1708757930.0
-37.47,1708757930.015625
-43.45,1708757930.03125
-49.88,1708757930.046875
-56.05,1708757930.0625
-60.94,1708757930.078125
-63.47,1708757930.09375
-62.76,1708757930.109375
-58.41,1708757930.125
-50.75,1708757930.140625
-40.64,1708757930.15625
-29.34,1708757930.171875
-18.06,1708757930.1875
-7.8,1708757930.203125
0.91,1708757930.21875
7.93,1708757930.234375
13.42,1708757930.25
17.63,1708757930.265625
20.77,1708757930.28125
22.93,1708757930.296875
24.17,1708757930.3125
24.52,1708757930.328125
24.15,1708757930.34375
23.36,1708757930.359375
22.49,1708757930.375
21.85,1708757930.390625
21.51,1708757930.40625
21.35,1708757930.421875
21.15,1708757930.4375
20.77,1708757930.453125
20.23,1708757930.46875
19.72,1708757930.484375
19.41,1708757930.5
19.3,1708757930.515625
19.13,1708757930.53125
18.47,1708757930.546875
16.9,1708757930.5625
14.24,1708757930.578125
10.62,1708757930.59375
6.39,1708757930.609375
1.96,1708757930.625
-2.37,1708757930.640625
-6.5,1708757930.65625
-10.44,1708757930.671875
-14.33,1708757930.6875
-18.29,1708757930.703125
-22.41,1708757930.71875
-26.83,1708757930.734375
-31.67,1708757930.75
-37.0,1708757930.765625
-42.66,1708757930.78125
-48.15,1708757930.796875
-52.57,1708757930.8125
-54.82,1708757930.828125
-53.88,1708757930.84375
-49.27,1708757930.859375
-41.25,1708757930.875
-30.82,1708757930.890625
-19.41,1708757930.90625
-8.38,1708757930.921875
1.35,1708757930.9375
9.53,1708757930.953125
16.32,1708757930.96875
22.05,1708757930.984375
26.86,1708757931.0
30.62,1708757931.015625
33.05,1708757931.03125
33.96,1708757931.046875
33.46,1708757931.0625
31.9,1708757931.078125
29.79,1708757931.09375
27.6,1708757931.109375
25.58,1708757931.125
23.82,1708757931.140625
22.33,1708757931.15625
21.16,1708757931.171875
20.38,1708757931.1875
20.07,1708757931.203125
20.15,1708757931.21875
20.39,1708757931.234375
20.39,1708757931.25
19.77,1708757931.265625
18.31,1708757931.28125
15.96,1708757931.296875
12.91,1708757931.3125
9.4,1708757931.328125
5.65,1708757931.34375
1.77,1708757931.359375
-2.23,1708757931.375
-6.36,1708757931.390625
-10.59,1708757931.40625
-14.83,1708757931.421875
-18.94,1708757931.4375
-22.83,1708757931.453125
-26.56,1708757931.46875
-30.27,1708757931.484375
-34.22,1708757931.5
-38.66,1708757931.515625
-43.7,1708757931.53125
-49.17,1708757931.546875
-54.53,1708757931.5625
-58.89,1708757931.578125
-61.14,1708757931.59375
-60.29,1708757931.609375
-55.8,1708757931.625
-47.75,1708757931.640625
-36.97,1708757931.65625
-24.72,1708757931.671875
-12.4,1708757931.6875
-1.12,1708757931.703125
8.52,1708757931.71875
16.4,1708757931.734375
22.73,1708757931.75
27.81,1708757931.765625
31.85,1708757931.78125
34.97,1708757931.796875
37.21,1708757931.8125
38.6,1708757931.828125
39.22,1708757931.84375
39.18,1708757931.859375
38.58,1708757931.875
37.52,1708757931.890625
36.05,1708757931.90625
34.26,1708757931.921875
32.27,1708757931.9375
30.2,1708757931.953125
28.14,1708757931.96875
26.05,1708757931.984375
23.83,1708757932.0
21.33,1708757932.015625
18.47,1708757932.03125
15.32,1708757932.046875
12.05,1708757932.0625
8.82,1708757932.078125
5.71,1708757932.09375
2.65,1708757932.109375
-0.57,1708757932.125
-4.13,1708757932.140625
-8.11,1708757932.15625
-12.45,1708757932.171875
-16.9,1708757932.1875
-21.17,1708757932.203125
-24.99,1708757932.21875
-28.25,1708757932.234375
-30.96,1708757932.25
-33.36,1708757932.265625
-35.85,1708757932.28125
-38.86,1708757932.296875
-42.8,1708757932.3125
-47.77,1708757932.328125
-53.47,1708757932.34375
-59.1,1708757932.359375
-63.52,1708757932.375
-65.55,1708757932.390625
-64.3,1708757932.40625
-59.52,1708757932.421875
-51.62,1708757932.4375
-41.56,1708757932.453125
-30.48,1708757932.46875
-19.45,1708757932.484375
-9.19,1708757932.5
-0.03,1708757932.515625
7.94,1708757932.53125
14.75,1708757932.546875
20.45,1708757932.5625
25.09,1708757932.578125
28.76,1708757932.59375
31.67,1708757932.609375
34.1,1708757932.625
36.34,1708757932.640625
38.55,1708757932.65625
40.74,1708757932.671875
42.75,1708757932.6875
44.39,1708757932.703125
45.56,1708757932.71875
46.27,1708757932.734375
46.63,1708757932.75
46.73,1708757932.765625
46.52,1708757932.78125
45.84,1708757932.796875
44.52,1708757932.8125
42.39,1708757932.828125
39.43,1708757932.84375
35.68,1708757932.859375
31.16,1708757932.875
25.9,1708757932.890625
19.89,1708757932.90625
13.18,1708757932.921875
5.94,1708757932.9375
-1.52,1708757932.953125
-8.83,1708757932.96875
-15.68,1708757932.984375
-21.92,1708757933.0
-27.62,1708757933.015625
-33.03,1708757933.03125
-38.48,1708757933.046875
-44.26,1708757933.0625
-50.46,1708757933.078125
-56.85,1708757933.09375
-62.83,1708757933.109375
-67.51,1708757933.125
-69.88,1708757933.140625
-69.13,1708757933.15625
-64.91,1708757933.171875
-57.48,1708757933.1875
-47.59,1708757933.203125
-36.36,1708757933.21875
-24.87,1708757933.234375
-14.0,1708757933.25
-4.3,1708757933.265625
3.99,1708757933.28125
10.82,1708757933.296875
16.21,1708757933.3125
20.19,1708757933.328125
22.78,1708757933.34375
24.12,1708757933.359375
24.41,1708757933.375
23.95,1708757933.390625
23.07,1708757933.40625
22.03,1708757933.421875
20.97,1708757933.4375
19.97,1708757933.453125
19.08,1708757933.46875
18.43,1708757933.484375
18.16,1708757933.5
18.44,1708757933.515625
19.33,1708757933.53125
20.67,1708757933.546875
22.13,1708757933.5625
23.22,1708757933.578125
23.51,1708757933.59375
22.75,1708757933.609375
20.97,1708757933.625
18.52,1708757933.640625
15.93,1708757933.65625
13.76,1708757933.671875
12.38,1708757933.6875
11.9,1708757933.703125
12.16,1708757933.71875
12.78,1708757933.734375
13.29,1708757933.75
13.33,1708757933.765625
12.73,1708757933.78125
11.71,1708757933.796875
10.88,1708757933.8125
11.1,1708757933.828125
13.23,1708757933.84375
17.8,1708757933.859375
24.78,1708757933.875
33.57,1708757933.890625
43.13,1708757933.90625
52.28,1708757933.921875
59.96,1708757933.9375
65.45,1708757933.953125
68.41,1708757933.96875
68.76,1708757933.984375
66.73,1708757934.0
62.69,1708757934.015625
57.1,1708757934.03125
50.41,1708757934.046875
43.07,1708757934.0625
35.38,1708757934.078125
27.67,1708757934.09375
20.29,1708757934.109375
13.69,1708757934.125
8.41,1708757934.140625
4.95,1708757934.15625
3.6,1708757934.171875
4.38,1708757934.1875
6.91,1708757934.203125
10.54,1708757934.21875
14.41,1708757934.234375
17.68,1708757934.25
19.66,1708757934.265625
19.98,1708757934.28125
18.64,1708757934.296875
15.97,1708757934.3125
12.54,1708757934.328125
8.98,1708757934.34375
5.92,1708757934.359375
3.63,1708757934.375
1.86,1708757934.390625
-0.39,1708757934.40625
-4.8,1708757934.421875
-13.28,1708757934.4375
-27.16,1708757934.453125
-46.3,1708757934.46875
-68.71,1708757934.484375
-90.85,1708757934.5
-108.77,1708757934.515625
-119.51,1708757934.53125
-122.05,1708757934.546875
-117.51,1708757934.5625
-108.37,1708757934.578125
-97.33,1708757934.59375
-86.37,1708757934.609375
-76.4,1708757934.625
-67.58,1708757934.640625
-59.76,1708757934.65625
-52.93,1708757934.671875
-47.19,1708757934.6875
-42.49,1708757934.703125
-38.51,1708757934.71875
-34.6,1708757934.734375
-30.07,1708757934.75
-24.59,1708757934.765625
-18.34,1708757934.78125
-12.03,1708757934.796875
-6.54,1708757934.8125
-2.59,1708757934.828125
-0.41,1708757934.84375
0.39,1708757934.859375
0.62,1708757934.875
1.18,1708757934.890625
2.63,1708757934.90625
4.89,1708757934.921875
7.24,1708757934.9375
8.58,1708757934.953125
7.86,1708757934.96875
4.5,1708757934.984375
-1.49,1708757935.0
-9.55,1708757935.015625
-18.83,1708757935.03125
-28.55,1708757935.046875
-38.18,1708757935.0625
-47.49,1708757935.078125
-56.44,1708757935.09375
-65.14,1708757935.109375
-73.69,1708757935.125
-82.13,1708757935.140625
-90.37,1708757935.15625
-97.99,1708757935.171875
-104.25,1708757935.1875
-108.12,1708757935.203125
-108.52,1708757935.21875
-104.77,1708757935.234375
-96.82,1708757935.25
-85.32,1708757935.265625
-71.44,1708757935.28125
-56.4,1708757935.296875
-41.2,1708757935.3125
-26.37,1708757935.328125
-12.18,1708757935.34375
1.14,1708757935.359375
13.22,1708757935.375
23.53,1708757935.390625
31.59,1708757935.40625
37.2,1708757935.421875
40.54,1708757935.4375
42.14,1708757935.453125
42.61,1708757935.46875
42.49,1708757935.484375
42.01,1708757935.5
41.18,1708757935.515625
39.88,1708757935.53125
38.06,1708757935.546875
35.81,1708757935.5625
33.42,1708757935.578125
31.22,1708757935.59375
29.44,1708757935.609375
28.12,1708757935.625
27.0,1708757935.640625
25.62,1708757935.65625
23.43,1708757935.671875
20.04,1708757935.6875
15.27,1708757935.703125
9.34,1708757935.71875
2.69,1708757935.734375
-4.18,1708757935.75
-10.87,1708757935.765625
-17.24,1708757935.78125
-23.39,1708757935.796875
-29.53,1708757935.8125
-35.9,1708757935.828125
-42.63,1708757935.84375
-49.71,1708757935.859375
-56.89,1708757935.875
-63.64,1708757935.890625
-69.21,1708757935.90625
-72.58,1708757935.921875
-72.81,1708757935.9375
-69.24,1708757935.953125
-61.75,1708757935.96875
-50.95,1708757935.984375
-37.99,1708757936.0
-24.24,1708757936.015625
-10.96,1708757936.03125
0.93,1708757936.046875
10.97,1708757936.0625
19.0,1708757936.078125
25.08,1708757936.09375
29.32,1708757936.109375
31.97,1708757936.125
33.37,1708757936.140625
34.02,1708757936.15625
34.59,1708757936.171875
35.79,1708757936.1875
38.19,1708757936.203125
42.02,1708757936.21875
47.11,1708757936.234375
52.96,1708757936.25
58.94,1708757936.265625
64.57,1708757936.28125
69.71,1708757936.296875
74.52,1708757936.3125
79.32,1708757936.328125
84.4,1708757936.34375
89.68,1708757936.359375
94.81,1708757936.375
99.17,1708757936.390625
102.13,1708757936.40625
103.22,1708757936.421875
102.19,1708757936.4375
99.09,1708757936.453125
94.1,1708757936.46875
87.43,1708757936.484375
79.24,1708757936.5
69.59,1708757936.515625
58.45,1708757936.53125
45.79,1708757936.546875
31.71,1708757936.5625
16.53,1708757936.578125
0.86,1708757936.59375
-14.35,1708757936.609375
-27.95,1708757936.625
-38.71,1708757936.640625
-45.62,1708757936.65625
-48.14,1708757936.671875
-46.42,1708757936.6875
-41.27,1708757936.703125
-34.03,1708757936.71875
-26.2,1708757936.734375
-19.01,1708757936.75
-13.2,1708757936.765625
-8.89,1708757936.78125
-5.8,1708757936.796875
-3.49,1708757936.8125
-1.68,1708757936.828125
-0.25,1708757936.84375
0.76,1708757936.859375
1.39,1708757936.875
1.8,1708757936.890625
2.27,1708757936.90625
3.09,1708757936.921875
4.33,1708757936.9375
5.9,1708757936.953125
7.5,1708757936.96875
8.82,1708757936.984375
9.69,1708757937.0
10.12,1708757937.015625
10.24,1708757937.03125
10.22,1708757937.046875
10.08,1708757937.0625
9.68,1708757937.078125
8.75,1708757937.09375
7.02,1708757937.109375
4.34,1708757937.125
0.81,1708757937.140625
-3.29,1708757937.15625
-7.59,1708757937.171875
-11.82,1708757937.1875
-15.9,1708757937.203125
-19.99,1708757937.21875
-24.43,1708757937.234375
-29.58,1708757937.25
-35.72,1708757937.265625
-42.9,1708757937.28125
-50.89,1708757937.296875
-59.1,1708757937.3125
-66.62,1708757937.328125
-72.24,1708757937.34375
-74.75,1708757937.359375
-73.2,1708757937.375
-67.25,1708757937.390625
-57.3,1708757937.40625
-44.41,1708757937.421875
-30.08,1708757937.4375
-15.83,1708757937.453125
-2.87,1708757937.46875
8.08,1708757937.484375
16.79,1708757937.5
23.39,1708757937.515625
28.21,1708757937.53125
31.54,1708757937.546875
33.66,1708757937.5625
34.76,1708757937.578125
35.0,1708757937.59375
34.59,1708757937.609375
33.72,1708757937.625
32.64,1708757937.640625
31.51,1708757937.65625
30.41,1708757937.671875
29.34,1708757937.6875
28.24,1708757937.703125
27.05,1708757937.71875
25.84,1708757937.734375
24.74,1708757937.75
23.88,1708757937.765625
23.25,1708757937.78125
22.63,1708757937.796875
21.63,1708757937.8125
