PPG GREEN,time
1876451.0,1708757860.652
1880682.0,1708757860.694
1886227.0,1708757860.733
1891981.0,1708757860.773
1898449.0,1708757860.814
1903507.0,1708757860.853
1906254.0,1708757860.894
1908312.0,1708757860.934
1911522.0,1708757860.973
1915357.0,1708757861.013
1918931.0,1708757861.054
1921317.0,1708757861.094
1921965.0,1708757861.134
1918866.0,1708757861.175
1911436.0,1708757861.214
1903786.0,1708757861.254
1897960.0,1708757861.296
1893502.0,1708757861.334
1889348.0,1708757861.374
1886712.0,1708757861.415
1884978.0,1708757861.454
1883526.0,1708757861.495
1881416.0,1708757861.535
1879663.0,1708757861.575
1878377.0,1708757861.656
1878554.0,1708757861.615
1878568.0,1708757861.696
1879555.0,1708757861.735
1880757.0,1708757861.776
1881491.0,1708757861.815
1882592.0,1708757861.855
1884225.0,1708757861.897
1885534.0,1708757861.935
1886633.0,1708757861.975
1882666.0,1708757862.016
1875727.0,1708757862.055
1869773.0,1708757862.097
1865567.0,1708757862.137
1861992.0,1708757862.176
1859150.0,1708757862.216
1857383.0,1708757862.257
1856693.0,1708757862.297
1855714.0,1708757862.336
1854674.0,1708757862.377
1854124.0,1708757862.416
1854401.0,1708757862.456
1855292.0,1708757862.499
1856712.0,1708757862.537
1858353.0,1708757862.577
1860526.0,1708757862.618
1862367.0,1708757862.657
1864530.0,1708757862.698
1866682.0,1708757862.738
1868744.0,1708757862.777
1871288.0,1708757862.818
1874014.0,1708757862.859
1873779.0,1708757862.899
1868148.0,1708757862.938
1857809.0,1708757863.018
1861996.0,1708757862.979
1852231.0,1708757863.1
1854750.0,1708757863.058
1850778.0,1708757863.138
1850710.0,1708757863.178
1850778.0,1708757863.219
1850365.0,1708757863.259
1850829.0,1708757863.34
1850117.0,1708757863.3
1851823.0,1708757863.379
1853499.0,1708757863.419
1855306.0,1708757863.46
1857801.0,1708757863.5
1860088.0,1708757863.539
1862577.0,1708757863.58
1865157.0,1708757863.619
1867768.0,1708757863.66
1870602.0,1708757863.702
1873473.0,1708757863.74
1876488.0,1708757863.78
1879306.0,1708757863.821
1880674.0,1708757863.86
1875707.0,1708757863.901
1870659.0,1708757863.941
1867265.0,1708757863.98
1865518.0,1708757864.02
1863942.0,1708757864.061
1863635.0,1708757864.101
1863942.0,1708757864.141
1864275.0,1708757864.182
1864154.0,1708757864.221
1864447.0,1708757864.261
1865058.0,1708757864.303
1866499.0,1708757864.341
1868322.0,1708757864.381
1870553.0,1708757864.469
1873117.0,1708757864.509
1875342.0,1708757864.55
1877966.0,1708757864.59
1880532.0,1708757864.629
1883276.0,1708757864.669
1885927.0,1708757864.71
1888064.0,1708757864.75
1884692.0,1708757864.789
1879789.0,1708757864.83
1876776.0,1708757864.869
1874968.0,1708757864.91
1873967.0,1708757864.952
1873715.0,1708757864.99
1874270.0,1708757865.03
1875090.0,1708757865.071
1875645.0,1708757865.11
1876126.0,1708757865.151
1877174.0,1708757865.191
1878997.0,1708757865.23
1881053.0,1708757865.271
1883545.0,1708757865.312
1886287.0,1708757865.352
1888734.0,1708757865.391
1891983.0,1708757865.432
1894588.0,1708757865.471
1897529.0,1708757865.511
1900501.0,1708757865.553
1903384.0,1708757865.592
1906319.0,1708757865.632
1905101.0,1708757865.673
1901135.0,1708757865.712
1898655.0,1708757865.753
1898796.0,1708757865.793
1899692.0,1708757865.832
1899313.0,1708757865.872
1898346.0,1708757865.914
1896484.0,1708757865.954
1893786.0,1708757865.993
1890103.0,1708757866.034
1886032.0,1708757866.073
1882561.0,1708757866.113
1879268.0,1708757866.155
1877370.0,1708757866.193
1876640.0,1708757866.233
1877388.0,1708757866.275
1878368.0,1708757866.314
1879465.0,1708757866.354
1880375.0,1708757866.395
1881344.0,1708757866.434
1883685.0,1708757866.474
1885524.0,1708757866.515
1887288.0,1708757866.555
1885879.0,1708757866.594
1881869.0,1708757866.635
1878889.0,1708757866.675
1877606.0,1708757866.715
1877188.0,1708757866.757
1876308.0,1708757866.795
1876463.0,1708757866.835
1876317.0,1708757866.876
1876286.0,1708757866.915
1876280.0,1708757866.956
1876165.0,1708757866.997
1876815.0,1708757867.036
1877840.0,1708757867.076
1879410.0,1708757867.117
1881039.0,1708757867.157
1882517.0,1708757867.196
1884038.0,1708757867.237
1885661.0,1708757867.276
1887530.0,1708757867.316
1889381.0,1708757867.358
1890824.0,1708757867.397
1888368.0,1708757867.437
1883845.0,1708757867.478
1880040.0,1708757867.517
1877704.0,1708757867.558
1875836.0,1708757867.598
1875188.0,1708757867.637
1875107.0,1708757867.677
1875558.0,1708757867.718
1875544.0,1708757867.758
1875242.0,1708757867.797
1876088.0,1708757867.838
1876562.0,1708757867.877
1878636.0,1708757867.917
1882044.0,1708757867.959
1885919.0,1708757867.998
1889655.0,1708757868.038
1893157.0,1708757868.079
1896962.0,1708757868.118
1901240.0,1708757868.159
1906203.0,1708757868.199
1910623.0,1708757868.238
1914315.0,1708757868.278
1913855.0,1708757868.319
1911447.0,1708757868.359
1908341.0,1708757868.398
1906009.0,1708757868.439
1904136.0,1708757868.479
1902695.0,1708757868.519
1902708.0,1708757868.56
1902903.0,1708757868.599
1903348.0,1708757868.639
1903264.0,1708757868.68
1904174.0,1708757868.719
1904725.0,1708757868.76
1905302.0,1708757868.8
1906402.0,1708757868.839
1907091.0,1708757868.879
1908405.0,1708757868.92
1909424.0,1708757868.96
1910180.0,1708757869.0
1911245.0,1708757869.041
1913100.0,1708757869.08
1914873.0,1708757869.121
1916698.0,1708757869.163
1915871.0,1708757869.201
1913976.0,1708757869.242
1912406.0,1708757869.281
1911838.0,1708757869.32
1912399.0,1708757869.361
1912823.0,1708757869.401
1912952.0,1708757869.441
1913864.0,1708757869.481
1914761.0,1708757869.522
1915084.0,1708757869.562
1916220.0,1708757869.602
1917304.0,1708757869.641
1919487.0,1708757869.68
1921518.0,1708757869.72
1923980.0,1708757869.762
1926261.0,1708757869.801
1928555.0,1708757869.84
1932229.0,1708757869.918
1930097.0,1708757869.879
1935062.0,1708757869.959
1935760.0,1708757870.039
1936277.0,1708757870.0
1934789.0,1708757870.121
1934330.0,1708757870.08
1934904.0,1708757870.161
1934936.0,1708757870.201
1936167.0,1708757870.242
1939816.0,1708757870.321
1941328.0,1708757870.363
1942325.0,1708757870.402
1938029.0,1708757870.281
1943314.0,1708757870.442
1945159.0,1708757870.481
1946808.0,1708757870.52
1948945.0,1708757870.561
1950831.0,1708757870.602
1952979.0,1708757870.641
1955416.0,1708757870.682
1957592.0,1708757870.723
1959738.0,1708757870.763
1962083.0,1708757870.802
1961647.0,1708757870.841
1959798.0,1708757870.881
1957833.0,1708757870.921
1956934.0,1708757870.963
1956901.0,1708757871.001
1956527.0,1708757871.042
1957299.0,1708757871.083
1958153.0,1708757871.122
1959418.0,1708757871.202
1959075.0,1708757871.161
1961592.0,1708757871.281
1960462.0,1708757871.241
1962832.0,1708757871.323
1964672.0,1708757871.362
1969957.0,1708757871.483
1971853.0,1708757871.521
1973756.0,1708757871.563
1975829.0,1708757871.601
1966323.0,1708757871.402
1968122.0,1708757871.443
1978193.0,1708757871.641
1978283.0,1708757871.683
1976638.0,1708757871.722
1974831.0,1708757871.763
1974082.0,1708757871.803
1973929.0,1708757871.843
1973686.0,1708757871.881
1974449.0,1708757871.922
1975321.0,1708757871.962
1976158.0,1708757872.002
1977060.0,1708757872.043
1977755.0,1708757872.082
1978979.0,1708757872.123
1982982.0,1708757872.201
1980436.0,1708757872.164
1988977.0,1708757872.283
1985723.0,1708757872.241
1992102.0,1708757872.322
1996412.0,1708757872.363
2000270.0,1708757872.402
2004795.0,1708757872.439
2009029.0,1708757872.479
2010747.0,1708757872.521
2009879.0,1708757872.561
2009650.0,1708757872.601
2010554.0,1708757872.681
2012831.0,1708757872.764
2009945.0,1708757872.642
2011674.0,1708757872.722
2015068.0,1708757872.802
2027041.0,1708757872.884
2035969.0,1708757872.923
2037153.0,1708757872.962
2018171.0,1708757872.842
2037195.0,1708757873.003
2036252.0,1708757873.042
2036786.0,1708757873.082
2036831.0,1708757873.123
2036802.0,1708757873.163
2037343.0,1708757873.203
2038938.0,1708757873.244
2036473.0,1708757873.322
2037272.0,1708757873.283
2034929.0,1708757873.402
2035456.0,1708757873.363
2037014.0,1708757873.484
2035387.0,1708757873.442
2039657.0,1708757873.523
2040826.0,1708757873.564
2043042.0,1708757873.604
2044631.0,1708757873.643
2046548.0,1708757873.682
2049212.0,1708757873.723
2050221.0,1708757873.763
2050136.0,1708757873.802
2050222.0,1708757873.844
2051145.0,1708757873.883
2051918.0,1708757873.923
2052592.0,1708757873.965
2053092.0,1708757874.002
2052892.0,1708757874.042
2050140.0,1708757874.083
2046739.0,1708757874.122
2043364.0,1708757874.164
2040387.0,1708757874.204
2037782.0,1708757874.243
2035776.0,1708757874.284
2034221.0,1708757874.325
2033091.0,1708757874.363
2031722.0,1708757874.402
2029820.0,1708757874.443
2028251.0,1708757874.483
2026385.0,1708757874.565
2025821.0,1708757874.644
2027075.0,1708757874.523
2025643.0,1708757874.685
2025903.0,1708757874.603
2025481.0,1708757874.722
2025428.0,1708757874.763
2025615.0,1708757874.804
2025429.0,1708757874.843
2018790.0,1708757874.925
2022386.0,1708757874.883
2012518.0,1708757875.0
2015436.0,1708757874.963
2010529.0,1708757875.041
2008929.0,1708757875.081
2007950.0,1708757875.122
2007323.0,1708757875.164
2006226.0,1708757875.202
2005363.0,1708757875.243
2004762.0,1708757875.284
2004471.0,1708757875.323
2004454.0,1708757875.364
2005029.0,1708757875.405
2006436.0,1708757875.444
2009084.0,1708757875.484
2011474.0,1708757875.525
2014183.0,1708757875.563
2017268.0,1708757875.603
2018767.0,1708757875.644
2018824.0,1708757875.683
2016533.0,1708757875.724
2013887.0,1708757875.765
2011985.0,1708757875.804
2011535.0,1708757875.844
2010963.0,1708757875.886
2011759.0,1708757875.923
2012558.0,1708757875.964
2013237.0,1708757876.004
2013268.0,1708757876.043
2013267.0,1708757876.084
2013554.0,1708757876.125
2014312.0,1708757876.165
2015382.0,1708757876.204
2016224.0,1708757876.246
2017174.0,1708757876.283
2018663.0,1708757876.323
2019853.0,1708757876.365
2020818.0,1708757876.403
2021891.0,1708757876.444
2021370.0,1708757876.48
2018914.0,1708757876.519
2016870.0,1708757876.56
2015868.0,1708757876.6
2015076.0,1708757876.64
2014793.0,1708757876.68
2015076.0,1708757876.721
2015928.0,1708757876.8
2015617.0,1708757876.761
2016043.0,1708757876.841
2016426.0,1708757876.88
2017257.0,1708757876.92
2018324.0,1708757876.962
2019336.0,1708757877.0
2021054.0,1708757877.041
2022381.0,1708757877.082
2023194.0,1708757877.121
2024455.0,1708757877.162
2025847.0,1708757877.203
2026633.0,1708757877.241
2026009.0,1708757877.279
2024293.0,1708757877.321
2022885.0,1708757877.36
2022060.0,1708757877.4
2021690.0,1708757877.441
2021780.0,1708757877.48
2022415.0,1708757877.52
2022940.0,1708757877.559
2023531.0,1708757877.597
2023596.0,1708757877.637
2024320.0,1708757877.68
2025821.0,1708757877.719
2028295.0,1708757877.76
2030994.0,1708757877.8
2033277.0,1708757877.84
2034707.0,1708757877.88
2036610.0,1708757877.921
2038721.0,1708757877.961
2041108.0,1708757878.001
2040858.0,1708757878.042
2039431.0,1708757878.081
2038185.0,1708757878.12
2038678.0,1708757878.162
2038976.0,1708757878.2
2038908.0,1708757878.24
2039217.0,1708757878.282
2040050.0,1708757878.321
2040389.0,1708757878.362
2040868.0,1708757878.402
2042269.0,1708757878.442
2043862.0,1708757878.48
2046133.0,1708757878.521
2047171.0,1708757878.561
2046177.0,1708757878.6
2049847.0,1708757878.642
2053185.0,1708757878.681
2054946.0,1708757878.721
2057222.0,1708757878.763
2058965.0,1708757878.802
2059290.0,1708757878.84
2058476.0,1708757878.881
2057278.0,1708757878.92
2056834.0,1708757878.962
2056404.0,1708757879.002
2056559.0,1708757879.041
2057502.0,1708757879.082
2057837.0,1708757879.123
2058714.0,1708757879.161
2059278.0,1708757879.2
2059678.0,1708757879.241
2060452.0,1708757879.281
2060709.0,1708757879.321
2061696.0,1708757879.363
2062878.0,1708757879.401
2063884.0,1708757879.442
2064875.0,1708757879.483
2065821.0,1708757879.52
2067010.0,1708757879.561
2067901.0,1708757879.602
2067619.0,1708757879.641
2066184.0,1708757879.681
2064816.0,1708757879.722
2063994.0,1708757879.762
2063804.0,1708757879.802
2063641.0,1708757879.843
2063517.0,1708757879.88
2063533.0,1708757879.921
2064011.0,1708757879.963
2064332.0,1708757880.001
2064452.0,1708757880.042
2064976.0,1708757880.082
2066068.0,1708757880.118
2067229.0,1708757880.159
2068278.0,1708757880.199
2069455.0,1708757880.239
2070685.0,1708757880.279
2072570.0,1708757880.321
2074149.0,1708757880.361
2074564.0,1708757880.4
2073207.0,1708757880.442
2072502.0,1708757880.481
2073337.0,1708757880.521
2074683.0,1708757880.563
2075743.0,1708757880.601
2078108.0,1708757880.642
2080068.0,1708757880.683
2081738.0,1708757880.722
2083016.0,1708757880.763
2086209.0,1708757880.802
2088336.0,1708757880.841
2090468.0,1708757880.88
2093119.0,1708757880.921
2094961.0,1708757880.962
2097388.0,1708757881.002
2099068.0,1708757881.043
2100473.0,1708757881.082
2102246.0,1708757881.122
2103418.0,1708757881.164
2103352.0,1708757881.201
2101464.0,1708757881.241
2100507.0,1708757881.283
2100465.0,1708757881.322
2100898.0,1708757881.363
2101756.0,1708757881.403
2102337.0,1708757881.442
2102868.0,1708757881.483
2103587.0,1708757881.524
2104255.0,1708757881.562
2104609.0,1708757881.601
2104870.0,1708757881.643
2104932.0,1708757881.682
2105460.0,1708757881.722
2106011.0,1708757881.764
2106715.0,1708757881.802
2107383.0,1708757881.843
2108072.0,1708757881.884
2108498.0,1708757881.921
2106629.0,1708757881.962
2104565.0,1708757882.003
2103349.0,1708757882.042
2102945.0,1708757882.082
2102351.0,1708757882.124
2102352.0,1708757882.163
2102445.0,1708757882.203
2102600.0,1708757882.244
2102405.0,1708757882.281
2102682.0,1708757882.322
2102815.0,1708757882.364
2102973.0,1708757882.402
2104063.0,1708757882.442
2104393.0,1708757882.484
2105485.0,1708757882.523
2106107.0,1708757882.564
2106907.0,1708757882.604
2107081.0,1708757882.641
2105262.0,1708757882.681
2102952.0,1708757882.722
2100867.0,1708757882.762
2098873.0,1708757882.843
2099733.0,1708757882.802
2098083.0,1708757882.882
2097774.0,1708757882.923
2097625.0,1708757882.965
2097483.0,1708757883.003
2097233.0,1708757883.044
2097193.0,1708757883.083
2097098.0,1708757883.122
2097301.0,1708757883.163
2097708.0,1708757883.203
2098236.0,1708757883.243
2098725.0,1708757883.283
2099217.0,1708757883.324
2099952.0,1708757883.364
2100130.0,1708757883.404
2097641.0,1708757883.443
2094544.0,1708757883.482
2092348.0,1708757883.522
2090371.0,1708757883.564
2088793.0,1708757883.603
2087899.0,1708757883.643
2087156.0,1708757883.684
2086387.0,1708757883.724
2085766.0,1708757883.765
2085134.0,1708757883.803
2084892.0,1708757883.842
2084544.0,1708757883.883
2084650.0,1708757883.924
2084730.0,1708757883.964
2085243.0,1708757884.004
2085635.0,1708757884.045
2086044.0,1708757884.084
2086503.0,1708757884.122
2086730.0,1708757884.164
2084773.0,1708757884.203
2081765.0,1708757884.243
2078603.0,1708757884.284
2076257.0,1708757884.323
2074566.0,1708757884.364
2072912.0,1708757884.405
2072080.0,1708757884.444
2071418.0,1708757884.482
2070438.0,1708757884.524
2069620.0,1708757884.563
2068734.0,1708757884.603
2068360.0,1708757884.644
2068342.0,1708757884.684
2068473.0,1708757884.724
2068607.0,1708757884.766
2069478.0,1708757884.804
2071604.0,1708757884.843
2074308.0,1708757884.884
2074869.0,1708757884.923
2072343.0,1708757884.964
2069738.0,1708757885.005
2069099.0,1708757885.044
2068619.0,1708757885.084
2068483.0,1708757885.126
2069640.0,1708757885.163
2070780.0,1708757885.202
2072504.0,1708757885.244
2073207.0,1708757885.283
2073072.0,1708757885.323
2073819.0,1708757885.365
2075651.0,1708757885.404
2075527.0,1708757885.444
2074859.0,1708757885.485
2075015.0,1708757885.525
2075942.0,1708757885.564
2076924.0,1708757885.604
2078059.0,1708757885.643
2078751.0,1708757885.684
2079338.0,1708757885.725
2076574.0,1708757885.765
2073939.0,1708757885.804
2072437.0,1708757885.846
2071420.0,1708757885.885
2070353.0,1708757885.923
2070916.0,1708757885.965
2072878.0,1708757886.003
2072349.0,1708757886.044
2070547.0,1708757886.085
2068546.0,1708757886.124
2068305.0,1708757886.165
2068481.0,1708757886.206
2068957.0,1708757886.245
2069928.0,1708757886.283
2070232.0,1708757886.325
2070469.0,1708757886.364
2070922.0,1708757886.404
2071403.0,1708757886.445
2072291.0,1708757886.484
2073150.0,1708757886.525
2073071.0,1708757886.567
2070923.0,1708757886.605
2068340.0,1708757886.643
2066037.0,1708757886.685
2064479.0,1708757886.724
2062850.0,1708757886.765
2062150.0,1708757886.805
2061627.0,1708757886.844
2061200.0,1708757886.885
2061058.0,1708757886.926
2060704.0,1708757886.964
2060632.0,1708757887.004
2060445.0,1708757887.045
2060603.0,1708757887.084
2061168.0,1708757887.125
2061821.0,1708757887.166
2062550.0,1708757887.205
2063169.0,1708757887.245
2064165.0,1708757887.287
2064814.0,1708757887.324
2065875.0,1708757887.365
2065652.0,1708757887.405
2063340.0,1708757887.444
2060567.0,1708757887.485
2058251.0,1708757887.526
2057254.0,1708757887.566
2056271.0,1708757887.605
2055516.0,1708757887.647
2055750.0,1708757887.684
2055541.0,1708757887.724
2055243.0,1708757887.765
2055070.0,1708757887.803
2054929.0,1708757887.843
2055461.0,1708757887.885
2056954.0,1708757887.925
2058211.0,1708757887.966
2059458.0,1708757888.006
2060778.0,1708757888.045
2062164.0,1708757888.086
2063932.0,1708757888.125
2065394.0,1708757888.165
2065520.0,1708757888.205
2063361.0,1708757888.246
2062147.0,1708757888.285
2060374.0,1708757888.325
2059294.0,1708757888.367
2058278.0,1708757888.406
2057363.0,1708757888.444
2056974.0,1708757888.488
2057629.0,1708757888.527
2055733.0,1708757888.567
2054619.0,1708757888.608
2054503.0,1708757888.647
2056079.0,1708757888.687
2057030.0,1708757888.728
2057088.0,1708757888.768
2059211.0,1708757888.848
2058135.0,1708757888.807
2060690.0,1708757888.887
2062326.0,1708757888.927
2063248.0,1708757888.97
2061622.0,1708757889.008
2058930.0,1708757889.049
2056338.0,1708757889.09
2054110.0,1708757889.129
2051894.0,1708757889.168
2050416.0,1708757889.209
2048974.0,1708757889.248
2047950.0,1708757889.288
2047049.0,1708757889.33
2046144.0,1708757889.369
2045210.0,1708757889.409
2044922.0,1708757889.45
2044791.0,1708757889.489
2044791.0,1708757889.528
2045131.0,1708757889.57
2045474.0,1708757889.608
2045794.0,1708757889.648
2046431.0,1708757889.69
2046919.0,1708757889.729
2047260.0,1708757889.77
2045453.0,1708757889.81
2041703.0,1708757889.85
2038715.0,1708757889.888
2036190.0,1708757889.929
2033832.0,1708757889.969
2032267.0,1708757890.009
2031748.0,1708757890.05
2030814.0,1708757890.089
2030019.0,1708757890.13
2029231.0,1708757890.171
2028524.0,1708757890.208
2028734.0,1708757890.248
2030352.0,1708757890.29
2031745.0,1708757890.328
2032750.0,1708757890.369
2033297.0,1708757890.41
2034109.0,1708757890.449
2035772.0,1708757890.49
2037071.0,1708757890.531
2037357.0,1708757890.571
2034813.0,1708757890.608
2031941.0,1708757890.649
2030005.0,1708757890.689
2029026.0,1708757890.729
2028440.0,1708757890.771
2029100.0,1708757890.809
2029826.0,1708757890.85
2030826.0,1708757890.891
2031886.0,1708757890.928
2032295.0,1708757890.969
2032910.0,1708757891.01
2032738.0,1708757891.049
2032884.0,1708757891.089
2033901.0,1708757891.131
2032073.0,1708757891.17
2032272.0,1708757891.21
2033241.0,1708757891.251
2035925.0,1708757891.288
2037403.0,1708757891.329
2037674.0,1708757891.371
2037005.0,1708757891.409
2037374.0,1708757891.449
2035644.0,1708757891.491
2033338.0,1708757891.53
2031699.0,1708757891.571
2030494.0,1708757891.611
2029319.0,1708757891.648
2027571.0,1708757891.689
2026805.0,1708757891.73
2025868.0,1708757891.77
2025651.0,1708757891.81
2025770.0,1708757891.851
2026177.0,1708757891.89
2027157.0,1708757891.931
2027871.0,1708757891.97
2028819.0,1708757892.009
2030158.0,1708757892.049
2031044.0,1708757892.091
2032297.0,1708757892.13
2032790.0,1708757892.171
2030518.0,1708757892.211
2027019.0,1708757892.25
2024208.0,1708757892.291
2022296.0,1708757892.33
2020070.0,1708757892.37
2018419.0,1708757892.409
2017578.0,1708757892.451
2016401.0,1708757892.49
2015367.0,1708757892.53
2014200.0,1708757892.572
2013494.0,1708757892.61
2013278.0,1708757892.651
2013054.0,1708757892.69
2013756.0,1708757892.77
2013378.0,1708757892.729
2014375.0,1708757892.811
2016427.0,1708757892.887
2015126.0,1708757892.85
2018702.0,1708757892.928
2021035.0,1708757892.968
2021598.0,1708757893.008
2021708.0,1708757893.049
2019462.0,1708757893.089
2017157.0,1708757893.129
2015976.0,1708757893.171
2014664.0,1708757893.21
2013255.0,1708757893.25
2012138.0,1708757893.291
2011148.0,1708757893.33
2010593.0,1708757893.372
2009529.0,1708757893.412
2009078.0,1708757893.451
2009463.0,1708757893.531
2009846.0,1708757893.57
2009275.0,1708757893.489
2010452.0,1708757893.61
2011586.0,1708757893.691
2012182.0,1708757893.731
2011048.0,1708757893.651
2013206.0,1708757893.773
2013541.0,1708757893.811
2011867.0,1708757893.85
2008208.0,1708757893.891
2004751.0,1708757893.93
2002563.0,1708757893.971
2000563.0,1708757894.012
1999364.0,1708757894.051
1998900.0,1708757894.091
1998190.0,1708757894.133
1997614.0,1708757894.17
1997265.0,1708757894.21
1996768.0,1708757894.251
1996744.0,1708757894.29
1997390.0,1708757894.331
1998008.0,1708757894.373
1998625.0,1708757894.411
2000242.0,1708757894.493
1999357.0,1708757894.452
2001305.0,1708757894.53
2002051.0,1708757894.571
2002996.0,1708757894.611
1997701.0,1708757894.691
2001229.0,1708757894.65
1991847.0,1708757894.772
1989913.0,1708757894.812
1994280.0,1708757894.732
1988496.0,1708757894.853
1987905.0,1708757894.89
1987841.0,1708757894.931
1988096.0,1708757894.972
1988092.0,1708757895.011
1987961.0,1708757895.051
1988569.0,1708757895.093
1989728.0,1708757895.132
1990684.0,1708757895.173
1995130.0,1708757895.291
1996490.0,1708757895.332
1993233.0,1708757895.25
1992080.0,1708757895.211
1997852.0,1708757895.372
1999290.0,1708757895.411
2001034.0,1708757895.452
2001221.0,1708757895.489
1998018.0,1708757895.53
1991596.0,1708757895.61
1990121.0,1708757895.651
1994412.0,1708757895.572
1988726.0,1708757895.692
1987623.0,1708757895.731
1987485.0,1708757895.772
1987670.0,1708757895.813
1988115.0,1708757895.852
1989023.0,1708757895.892
1989432.0,1708757895.933
1989650.0,1708757895.971
1990746.0,1708757896.011
1993968.0,1708757896.132
1991442.0,1708757896.052
1995383.0,1708757896.173
1996717.0,1708757896.212
1998311.0,1708757896.252
1997788.0,1708757896.294
1995292.0,1708757896.331
1992915.0,1708757896.372
1991809.0,1708757896.412
1991114.0,1708757896.451
1990819.0,1708757896.492
1990846.0,1708757896.533
1990949.0,1708757896.573
1990541.0,1708757896.612
1989995.0,1708757896.654
1992969.0,1708757896.091
1989637.0,1708757896.691
1990076.0,1708757896.731
1990462.0,1708757896.773
1991141.0,1708757896.811
1992143.0,1708757896.852
1993181.0,1708757896.893
1994032.0,1708757896.932
1995739.0,1708757897.012
1994061.0,1708757897.051
1995005.0,1708757896.974
1990153.0,1708757897.092
1986370.0,1708757897.133
1983594.0,1708757897.173
1981385.0,1708757897.212
1979749.0,1708757897.253
1978846.0,1708757897.293
1978167.0,1708757897.333
1976598.0,1708757897.411
1977397.0,1708757897.373
1976212.0,1708757897.452
1976020.0,1708757897.493
1976193.0,1708757897.532
1976558.0,1708757897.573
1977395.0,1708757897.614
1978586.0,1708757897.653
1979669.0,1708757897.693
1980696.0,1708757897.732
1982109.0,1708757897.772
1982968.0,1708757897.812
1981084.0,1708757897.853
1977421.0,1708757897.892
1974614.0,1708757897.933
1975019.0,1708757897.975
1975643.0,1708757898.052
1976243.0,1708757898.012
1974928.0,1708757898.093
1975028.0,1708757898.131
1974627.0,1708757898.172
1973885.0,1708757898.213
1972522.0,1708757898.252
1972876.0,1708757898.293
1974066.0,1708757898.334
1975377.0,1708757898.374
1975666.0,1708757898.413
1978165.0,1708757898.492
1980006.0,1708757898.532
1982249.0,1708757898.574
1984990.0,1708757898.612
1976630.0,1708757898.454
1985950.0,1708757898.653
1983739.0,1708757898.694
1981299.0,1708757898.733
1980032.0,1708757898.774
1979243.0,1708757898.815
1978785.0,1708757898.852
1978836.0,1708757898.892
1979424.0,1708757898.933
1979283.0,1708757898.973
1979177.0,1708757899.013
1978820.0,1708757899.054
1978830.0,1708757899.093
1979398.0,1708757899.134
1979813.0,1708757899.174
1980947.0,1708757899.212
1981908.0,1708757899.252
1983105.0,1708757899.294
1984310.0,1708757899.333
1984789.0,1708757899.374
1982162.0,1708757899.414
1978550.0,1708757899.454
1975394.0,1708757899.494
1973414.0,1708757899.533
1972054.0,1708757899.573
1971125.0,1708757899.613
1971031.0,1708757899.693
1971086.0,1708757899.654
1970435.0,1708757899.733
1970071.0,1708757899.775
1970047.0,1708757899.814
1970202.0,1708757899.854
1972028.0,1708757899.933
1973283.0,1708757899.974
1970569.0,1708757899.893
1975264.0,1708757900.014
1982496.0,1708757900.135
1977303.0,1708757900.053
1980206.0,1708757900.094
1983874.0,1708757900.175
1983766.0,1708757900.212
1982298.0,1708757900.254
1981195.0,1708757900.293
1980892.0,1708757900.333
1981582.0,1708757900.375
1983603.0,1708757900.414
1986522.0,1708757900.454
1988443.0,1708757900.489
1989298.0,1708757900.528
1999085.0,1708757900.61
2000414.0,1708757900.649
2000809.0,1708757900.689
1993036.0,1708757900.569
2002482.0,1708757900.769
2004411.0,1708757900.809
2005830.0,1708757900.85
2007013.0,1708757900.889
2001228.0,1708757900.73
2007921.0,1708757900.929
2007432.0,1708757900.971
2000544.0,1708757901.048
2004269.0,1708757901.01
1997352.0,1708757901.089
1995262.0,1708757901.128
1993656.0,1708757901.169
1992814.0,1708757901.21
1992204.0,1708757901.249
1991574.0,1708757901.289
1991388.0,1708757901.331
1990992.0,1708757901.37
1990869.0,1708757901.408
1991332.0,1708757901.449
1991623.0,1708757901.488
1992359.0,1708757901.529
1993235.0,1708757901.571
1993999.0,1708757901.609
1994898.0,1708757901.649
1996104.0,1708757901.691
1994489.0,1708757901.73
1991071.0,1708757901.769
1987729.0,1708757901.809
1985367.0,1708757901.849
1983735.0,1708757901.889
1982753.0,1708757901.93
1982339.0,1708757901.97
1982286.0,1708757902.01
1982143.0,1708757902.051
1982665.0,1708757902.088
1982231.0,1708757902.129
1982511.0,1708757902.17
1983115.0,1708757902.209
1983525.0,1708757902.249
1984709.0,1708757902.291
1985996.0,1708757902.33
1987164.0,1708757902.371
1988602.0,1708757902.411
1989779.0,1708757902.448
1988289.0,1708757902.489
1986402.0,1708757902.53
1982073.0,1708757902.609
1983835.0,1708757902.57
1981898.0,1708757902.651
1982383.0,1708757902.69
1982346.0,1708757902.73
1983182.0,1708757902.772
1985032.0,1708757902.808
1985521.0,1708757902.849
1988215.0,1708757902.89
1994264.0,1708757902.929
1996794.0,1708757902.97
1997098.0,1708757903.011
1997303.0,1708757903.091
1998866.0,1708757903.128
2000098.0,1708757903.168
2001504.0,1708757903.207
2001455.0,1708757903.248
1997900.0,1708757903.287
1993732.0,1708757903.329
1990607.0,1708757903.371
1988221.0,1708757903.409
1986242.0,1708757903.449
1997033.0,1708757903.05
1985257.0,1708757903.491
1983521.0,1708757903.571
1984212.0,1708757903.53
1981907.0,1708757903.65
1981419.0,1708757903.691
1981315.0,1708757903.73
1981497.0,1708757903.77
1981766.0,1708757903.81
1982253.0,1708757903.851
1982799.0,1708757903.611
1983339.0,1708757903.89
1983998.0,1708757903.931
1984995.0,1708757903.972
1984283.0,1708757904.011
1980208.0,1708757904.049
1976325.0,1708757904.091
1972928.0,1708757904.13
1970555.0,1708757904.171
1968999.0,1708757904.211
1968072.0,1708757904.25
1966867.0,1708757904.332
1966508.0,1708757904.372
1965811.0,1708757904.451
1967345.0,1708757904.291
1965870.0,1708757904.409
1966034.0,1708757904.49
1966977.0,1708757904.53
1969003.0,1708757904.572
1970444.0,1708757904.61
1971753.0,1708757904.651
1973934.0,1708757904.692
1975269.0,1708757904.811
1975822.0,1708757904.731
1976442.0,1708757904.77
1973357.0,1708757904.85
1972043.0,1708757904.89
1971951.0,1708757904.932
1971776.0,1708757904.971
1971816.0,1708757905.011
1971780.0,1708757905.052
1972009.0,1708757905.092
1973409.0,1708757905.13
1974534.0,1708757905.172
1975590.0,1708757905.21
1976506.0,1708757905.25
1978258.0,1708757905.292
1981126.0,1708757905.331
1983606.0,1708757905.372
1985588.0,1708757905.412
1987349.0,1708757905.452
1987925.0,1708757905.49
1984369.0,1708757905.531
1979628.0,1708757905.571
1976032.0,1708757905.611
1973370.0,1708757905.652
1968576.0,1708757905.729
1967031.0,1708757905.771
1965411.0,1708757905.81
1963897.0,1708757905.85
1962511.0,1708757905.891
1961566.0,1708757905.93
1960660.0,1708757905.972
1970652.0,1708757905.69
1960305.0,1708757906.012
1960527.0,1708757906.051
1961117.0,1708757906.133
1961481.0,1708757906.173
1962217.0,1708757906.21
1962668.0,1708757906.251
1958624.0,1708757906.291
1953204.0,1708757906.331
1948711.0,1708757906.373
1960648.0,1708757906.092
1945327.0,1708757906.411
1942753.0,1708757906.452
1940852.0,1708757906.493
1939797.0,1708757906.532
1939368.0,1708757906.571
1938771.0,1708757906.612
1939020.0,1708757906.651
1939151.0,1708757906.691
1940536.0,1708757906.772
1943724.0,1708757906.853
1945576.0,1708757906.892
1947589.0,1708757906.931
1942187.0,1708757906.812
1939616.0,1708757906.732
1950211.0,1708757906.972
1952215.0,1708757907.011
1953098.0,1708757907.051
1952408.0,1708757907.132
1953055.0,1708757907.093
1951458.0,1708757907.173
1950858.0,1708757907.213
1951386.0,1708757907.252
1952771.0,1708757907.332
1951722.0,1708757907.291
1955485.0,1708757907.372
1957957.0,1708757907.453
1957187.0,1708757907.411
1959219.0,1708757907.492
1960355.0,1708757907.532
1962928.0,1708757907.613
1961620.0,1708757907.574
1964514.0,1708757907.651
1963720.0,1708757907.692
1959827.0,1708757907.731
1952961.0,1708757907.813
1950981.0,1708757907.852
1949451.0,1708757907.892
1948738.0,1708757907.934
1947975.0,1708757907.972
1955694.0,1708757907.772
1947338.0,1708757908.011
1946453.0,1708757908.052
1945499.0,1708757908.132
1945720.0,1708757908.092
1945895.0,1708757908.174
1945975.0,1708757908.212
1946920.0,1708757908.249
1947740.0,1708757908.29
1949078.0,1708757908.329
1949561.0,1708757908.371
1939874.0,1708757908.451
1932192.0,1708757908.532
1929630.0,1708757908.572
1927997.0,1708757908.612
1927260.0,1708757908.653
1926766.0,1708757908.692
1925543.0,1708757908.733
1924920.0,1708757908.775
1924302.0,1708757908.813
1924032.0,1708757908.851
1924313.0,1708757908.893
1924928.0,1708757908.932
1935336.0,1708757908.491
1945220.0,1708757908.411
1926865.0,1708757909.013
1926059.0,1708757908.973
1928230.0,1708757909.053
1926884.0,1708757909.134
1921997.0,1708757909.172
1917360.0,1708757909.212
1914059.0,1708757909.253
1912327.0,1708757909.292
1929159.0,1708757909.093
1912839.0,1708757909.374
1912191.0,1708757909.333
1916116.0,1708757909.453
1915037.0,1708757909.413
1916214.0,1708757909.495
1916363.0,1708757909.532
1917822.0,1708757909.573
1920784.0,1708757909.613
1923184.0,1708757909.652
1926455.0,1708757909.693
1928705.0,1708757909.734
1930619.0,1708757909.774
1932680.0,1708757909.813
1934411.0,1708757909.855
1931486.0,1708757909.892
1927053.0,1708757909.932
1923424.0,1708757910.013
1924534.0,1708757909.974
1923303.0,1708757910.053
1923649.0,1708757910.094
1924171.0,1708757910.133
1924916.0,1708757910.174
1925828.0,1708757910.213
1926721.0,1708757910.252
1927949.0,1708757910.293
1929294.0,1708757910.334
1930483.0,1708757910.374
1931986.0,1708757910.413
1933753.0,1708757910.454
1936503.0,1708757910.534
1935253.0,1708757910.494
1938233.0,1708757910.574
1939348.0,1708757910.612
1936506.0,1708757910.653
1931774.0,1708757910.694
1928392.0,1708757910.733
1925677.0,1708757910.774
1923124.0,1708757910.851
1922552.0,1708757910.892
1922470.0,1708757910.933
1923989.0,1708757910.814
1922570.0,1708757910.973
1922278.0,1708757911.013
1922201.0,1708757911.054
1922716.0,1708757911.093
1923423.0,1708757911.133
1924180.0,1708757911.175
1925253.0,1708757911.214
1926681.0,1708757911.254
1927929.0,1708757911.296
1929220.0,1708757911.332
1930591.0,1708757911.374
1928515.0,1708757911.414
1924123.0,1708757911.453
1920836.0,1708757911.494
1918885.0,1708757911.535
1917499.0,1708757911.575
1918354.0,1708757911.655
1919597.0,1708757911.693
1921955.0,1708757911.733
1916973.0,1708757911.614
1926079.0,1708757911.813
1928937.0,1708757911.854
1924472.0,1708757911.775
1930938.0,1708757911.895
1933829.0,1708757911.975
1937140.0,1708757912.093
1935874.0,1708757912.053
1940250.0,1708757912.135
1942928.0,1708757912.174
1941682.0,1708757912.214
1939415.0,1708757912.255
1938183.0,1708757912.295
1934714.0,1708757912.014
1932670.0,1708757911.934
1937628.0,1708757912.335
1937789.0,1708757912.375
1938154.0,1708757912.413
1938880.0,1708757912.454
1939662.0,1708757912.499
1940272.0,1708757912.538
1941244.0,1708757912.579
1942149.0,1708757912.619
1944223.0,1708757912.698
1945491.0,1708757912.739
1946873.0,1708757912.779
1943177.0,1708757912.658
1947791.0,1708757912.818
1949327.0,1708757912.859
1944243.0,1708757912.939
1948385.0,1708757912.899
1940029.0,1708757912.981
1937130.0,1708757913.019
1935088.0,1708757913.059
1934133.0,1708757913.1
1933338.0,1708757913.18
1933468.0,1708757913.139
1933247.0,1708757913.221
1932459.0,1708757913.299
1932830.0,1708757913.379
1933416.0,1708757913.419
1934244.0,1708757913.46
1935514.0,1708757913.499
1932473.0,1708757913.34
1933049.0,1708757913.26
1936630.0,1708757913.54
1937833.0,1708757913.582
1938812.0,1708757913.62
1930751.0,1708757913.7
1924360.0,1708757913.78
1926939.0,1708757913.739
1935545.0,1708757913.661
1922406.0,1708757913.82
1921422.0,1708757913.859
1921187.0,1708757913.9
1920845.0,1708757913.941
1920903.0,1708757914.019
1920829.0,1708757913.981
1926640.0,1708757914.14
1921993.0,1708757914.06
1924278.0,1708757914.099
1928024.0,1708757914.182
1928786.0,1708757914.22
1930737.0,1708757914.26
1932719.0,1708757914.302
1934436.0,1708757914.339
1933785.0,1708757914.38
1933110.0,1708757914.42
1932655.0,1708757914.46
1931694.0,1708757914.5
1930565.0,1708757914.541
1930200.0,1708757914.581
1929972.0,1708757914.621
1931511.0,1708757914.662
1934867.0,1708757914.699
1934512.0,1708757914.739
1934661.0,1708757914.781
1936029.0,1708757914.82
1937913.0,1708757914.86
1940695.0,1708757914.901
1943028.0,1708757914.941
1945579.0,1708757914.982
1946809.0,1708757915.02
1947987.0,1708757915.059
1949681.0,1708757915.1
1951349.0,1708757915.141
1949525.0,1708757915.181
1944616.0,1708757915.221
1939672.0,1708757915.262
1936101.0,1708757915.301
1933567.0,1708757915.341
1931490.0,1708757915.381
1930224.0,1708757915.42
1929541.0,1708757915.46
1928688.0,1708757915.501
1927487.0,1708757915.54
1926557.0,1708757915.581
1926323.0,1708757915.622
1926577.0,1708757915.661
1927004.0,1708757915.702
1928016.0,1708757915.741
1928737.0,1708757915.78
1930246.0,1708757915.82
1931555.0,1708757915.861
1932772.0,1708757915.901
1930323.0,1708757915.938
1925404.0,1708757915.981
1920686.0,1708757916.019
1917668.0,1708757916.06
1915337.0,1708757916.101
1913830.0,1708757916.14
1913050.0,1708757916.181
1912869.0,1708757916.222
1912529.0,1708757916.261
1911927.0,1708757916.301
1911275.0,1708757916.343
1911477.0,1708757916.382
1912996.0,1708757916.461
1912027.0,1708757916.42
1914095.0,1708757916.5
1915912.0,1708757916.541
1917947.0,1708757916.583
1920982.0,1708757916.621
1923723.0,1708757916.661
1923534.0,1708757916.703
1920810.0,1708757916.742
1918557.0,1708757916.781
1916713.0,1708757916.821
1916915.0,1708757916.86
1917545.0,1708757916.901
1918719.0,1708757916.942
1919246.0,1708757916.982
1919776.0,1708757917.022
1919481.0,1708757917.063
1919733.0,1708757917.1
1919921.0,1708757917.141
1920268.0,1708757917.182
1921323.0,1708757917.221
1922265.0,1708757917.261
1923163.0,1708757917.303
1924477.0,1708757917.342
1923553.0,1708757917.383
1918873.0,1708757917.423
1914076.0,1708757917.46
1910906.0,1708757917.501
1908414.0,1708757917.542
1906747.0,1708757917.582
1905476.0,1708757917.621
1905091.0,1708757917.663
1904542.0,1708757917.702
1903811.0,1708757917.742
1903387.0,1708757917.784
1903327.0,1708757917.82
1903567.0,1708757917.861
1904227.0,1708757917.902
1904923.0,1708757917.941
1906046.0,1708757917.982
1907192.0,1708757918.023
1908240.0,1708757918.062
1908468.0,1708757918.103
1904010.0,1708757918.142
1898776.0,1708757918.182
1895154.0,1708757918.221
1892384.0,1708757918.262
1890490.0,1708757918.302
1889234.0,1708757918.342
1888483.0,1708757918.384
1887762.0,1708757918.422
1886979.0,1708757918.461
1886269.0,1708757918.501
1886252.0,1708757918.541
1886294.0,1708757918.582
1887248.0,1708757918.623
1889224.0,1708757918.662
1892174.0,1708757918.702
1895632.0,1708757918.743
1898569.0,1708757918.783
1900043.0,1708757918.823
1901366.0,1708757918.862
1902180.0,1708757918.901
1901801.0,1708757918.942
1901237.0,1708757918.984
1901123.0,1708757919.022
1900580.0,1708757919.063
1900636.0,1708757919.104
1902023.0,1708757919.143
1903331.0,1708757919.182
1904768.0,1708757919.222
1906444.0,1708757919.262
1908557.0,1708757919.302
1910961.0,1708757919.343
1913362.0,1708757919.383
1915883.0,1708757919.423
1918143.0,1708757919.464
1920082.0,1708757919.503
1923196.0,1708757919.541
1928639.0,1708757919.583
1932583.0,1708757919.622
1930518.0,1708757919.662
1926577.0,1708757919.703
1924249.0,1708757919.743
1922547.0,1708757919.784
1922123.0,1708757919.824
1921813.0,1708757919.863
1922092.0,1708757919.902
1921992.0,1708757919.943
1921757.0,1708757919.983
1921701.0,1708757920.022
1921889.0,1708757920.064
1922486.0,1708757920.103
1923523.0,1708757920.143
1924402.0,1708757920.185
1925646.0,1708757920.222
1927009.0,1708757920.262
1928280.0,1708757920.303
1930012.0,1708757920.342
1931559.0,1708757920.383
1930893.0,1708757920.424
1925996.0,1708757920.463
1921684.0,1708757920.503
1918537.0,1708757920.545
1916245.0,1708757920.582
1914327.0,1708757920.622
1913595.0,1708757920.663
1913165.0,1708757920.703
1912814.0,1708757920.743
1912656.0,1708757920.785
1912477.0,1708757920.823
1913169.0,1708757920.864
1913538.0,1708757920.905
1914765.0,1708757920.942
1915908.0,1708757920.983
1917235.0,1708757921.023
1918679.0,1708757921.062
1920144.0,1708757921.103
1921522.0,1708757921.144
1923136.0,1708757921.184
1922307.0,1708757921.224
1917867.0,1708757921.265
1913906.0,1708757921.304
1912300.0,1708757921.342
1913263.0,1708757921.384
1911931.0,1708757921.423
1910754.0,1708757921.463
1910154.0,1708757921.504
1910402.0,1708757921.543
1910436.0,1708757921.584
1909659.0,1708757921.625
1909484.0,1708757921.664
1910497.0,1708757921.702
1912643.0,1708757921.744
1914883.0,1708757921.783
1917067.0,1708757921.823
1919249.0,1708757921.864
1921804.0,1708757921.904
1922776.0,1708757921.944
1919562.0,1708757921.986
1916822.0,1708757922.022
1915217.0,1708757922.063
1914235.0,1708757922.104
1914381.0,1708757922.143
1915530.0,1708757922.184
1916669.0,1708757922.225
1918255.0,1708757922.264
1919598.0,1708757922.304
1920911.0,1708757922.346
1921910.0,1708757922.383
1923264.0,1708757922.423
1924217.0,1708757922.464
1925787.0,1708757922.503
1927012.0,1708757922.544
1928343.0,1708757922.586
1929678.0,1708757922.624
1925863.0,1708757922.664
1920913.0,1708757922.706
1917535.0,1708757922.743
1914782.0,1708757922.784
1912509.0,1708757922.824
1911525.0,1708757922.863
1911299.0,1708757922.904
1910739.0,1708757922.945
1910722.0,1708757922.985
1910219.0,1708757923.025
1910233.0,1708757923.064
1910681.0,1708757923.103
1911662.0,1708757923.144
1912274.0,1708757923.186
1913455.0,1708757923.224
1915155.0,1708757923.264
1916371.0,1708757923.306
1917721.0,1708757923.345
1914125.0,1708757923.386
1908756.0,1708757923.424
1904520.0,1708757923.463
1901465.0,1708757923.504
1898530.0,1708757923.545
1896904.0,1708757923.585
1896138.0,1708757923.621
1895569.0,1708757923.662
1894578.0,1708757923.701
1894180.0,1708757923.743
1893781.0,1708757923.785
1894167.0,1708757923.823
1896700.0,1708757923.863
1898278.0,1708757923.905
1898517.0,1708757923.944
1899408.0,1708757923.985
1899741.0,1708757924.026
1900785.0,1708757924.065
1903953.0,1708757924.105
1906778.0,1708757924.147
1908636.0,1708757924.184
1908953.0,1708757924.224
1909844.0,1708757924.265
1911091.0,1708757924.304
1912573.0,1708757924.345
1912894.0,1708757924.387
1913163.0,1708757924.425
1915112.0,1708757924.465
1920267.0,1708757924.511
1920887.0,1708757924.55
1920636.0,1708757924.591
1920467.0,1708757924.631
1921049.0,1708757924.67
1921978.0,1708757924.71
1923163.0,1708757924.751
1924875.0,1708757924.791
1926238.0,1708757924.83
1927593.0,1708757924.871
1929313.0,1708757924.911
1930941.0,1708757924.951
1930081.0,1708757924.991
1925026.0,1708757925.029
1920379.0,1708757925.069
1916390.0,1708757925.111
1913617.0,1708757925.15
1910924.0,1708757925.191
1909759.0,1708757925.231
1909193.0,1708757925.271
1908907.0,1708757925.311
1908740.0,1708757925.35
1908771.0,1708757925.39
1909040.0,1708757925.43
1910266.0,1708757925.471
1911321.0,1708757925.51
1912755.0,1708757925.55
1914358.0,1708757925.592
1916305.0,1708757925.631
1918023.0,1708757925.671
1919931.0,1708757925.71
1922088.0,1708757925.749
1923440.0,1708757925.79
1920854.0,1708757925.831
1916733.0,1708757925.87
1913982.0,1708757925.911
1912967.0,1708757925.952
1912415.0,1708757925.992
1912668.0,1708757926.029
1913751.0,1708757926.071
1915044.0,1708757926.11
1915956.0,1708757926.15
1917764.0,1708757926.191
1920697.0,1708757926.23
1922539.0,1708757926.271
1923833.0,1708757926.312
1925898.0,1708757926.351
1928728.0,1708757926.392
1931535.0,1708757926.431
1932975.0,1708757926.47
1931892.0,1708757926.51
1930204.0,1708757926.551
1928044.0,1708757926.591
1927991.0,1708757926.631
1926218.0,1708757926.672
1924661.0,1708757926.711
1925348.0,1708757926.752
1926969.0,1708757926.791
1928381.0,1708757926.83
1930102.0,1708757926.87
1930925.0,1708757926.912
1930707.0,1708757926.951
1930540.0,1708757926.992
1930717.0,1708757927.032
1931161.0,1708757927.072
1931688.0,1708757927.11
1932083.0,1708757927.151
1933038.0,1708757927.191
1932421.0,1708757927.231
1928291.0,1708757927.272
1923657.0,1708757927.311
1920152.0,1708757927.352
1917210.0,1708757927.393
1914779.0,1708757927.432
1913437.0,1708757927.47
1912041.0,1708757927.511
1910829.0,1708757927.55
1909862.0,1708757927.592
1908824.0,1708757927.632
1908284.0,1708757927.671
1908382.0,1708757927.712
1908212.0,1708757927.753
1908605.0,1708757927.793
1909194.0,1708757927.83
1910113.0,1708757927.871
1910043.0,1708757927.911
1905605.0,1708757927.951
1900026.0,1708757927.993
1896097.0,1708757928.032
1892922.0,1708757928.072
1890120.0,1708757928.113
1888233.0,1708757928.15
1887333.0,1708757928.191
1886117.0,1708757928.232
1885547.0,1708757928.271
1885157.0,1708757928.312
1884931.0,1708757928.353
1885240.0,1708757928.393
1886284.0,1708757928.432
1887784.0,1708757928.473
1888871.0,1708757928.51
1890290.0,1708757928.551
1891727.0,1708757928.593
1892675.0,1708757928.631
1888885.0,1708757928.672
1883452.0,1708757928.713
1879102.0,1708757928.749
1875733.0,1708757928.789
1872814.0,1708757928.83
1870957.0,1708757928.87
1870121.0,1708757928.91
1868942.0,1708757928.952
1867994.0,1708757928.991
1867142.0,1708757929.031
1866882.0,1708757929.072
1866847.0,1708757929.112
1867389.0,1708757929.152
1868251.0,1708757929.194
1869084.0,1708757929.232
1870245.0,1708757929.273
1871790.0,1708757929.314
1868189.0,1708757929.392
1863292.0,1708757929.432
1859927.0,1708757929.472
1872522.0,1708757929.351
1854689.0,1708757929.553
1852995.0,1708757929.633
1852946.0,1708757929.674
1852785.0,1708757929.711
1853654.0,1708757929.593
1856990.0,1708757929.512
1852683.0,1708757929.751
1852493.0,1708757929.793
1853039.0,1708757929.832
1853895.0,1708757929.872
1854725.0,1708757929.914
1856216.0,1708757929.953
1857721.0,1708757929.994
1859256.0,1708757930.032
1861160.0,1708757930.071
1862467.0,1708757930.112
1859462.0,1708757930.153
1854725.0,1708757930.193
1850924.0,1708757930.233
1848071.0,1708757930.274
1845957.0,1708757930.313
1844589.0,1708757930.353
1844259.0,1708757930.393
1846416.0,1708757930.432
1847499.0,1708757930.472
1850563.0,1708757930.513
1851161.0,1708757930.552
1851843.0,1708757930.593
1852046.0,1708757930.634
1852765.0,1708757930.673
1853890.0,1708757930.714
1856547.0,1708757930.753
1859752.0,1708757930.792
1862539.0,1708757930.832
1865069.0,1708757930.873
1868674.0,1708757930.913
1870246.0,1708757930.953
1870208.0,1708757930.995
1869313.0,1708757931.033
1865341.0,1708757931.072
1862607.0,1708757931.113
1861980.0,1708757931.152
1862249.0,1708757931.193
1862981.0,1708757931.234
1863603.0,1708757931.272
1864173.0,1708757931.31
1865046.0,1708757931.352
1866366.0,1708757931.392
1868390.0,1708757931.432
1870382.0,1708757931.473
1872830.0,1708757931.512
1875919.0,1708757931.552
1878724.0,1708757931.594
1881582.0,1708757931.633
1884238.0,1708757931.673
1886438.0,1708757931.714
1883430.0,1708757931.754
1879438.0,1708757931.795
1875951.0,1708757931.833
1873557.0,1708757931.872
1871441.0,1708757931.913
1870514.0,1708757931.954
1869792.0,1708757931.994
1869089.0,1708757932.034
1868938.0,1708757932.075
1868637.0,1708757932.114
1868596.0,1708757932.152
1869216.0,1708757932.194
1869873.0,1708757932.233
1870814.0,1708757932.273
1872355.0,1708757932.314
1873754.0,1708757932.353
1875222.0,1708757932.395
1876916.0,1708757932.435
1878590.0,1708757932.474
1877919.0,1708757932.513
1873798.0,1708757932.554
1870544.0,1708757932.593
1868436.0,1708757932.633
1867002.0,1708757932.674
1866958.0,1708757932.714
1870051.0,1708757932.754
1870963.0,1708757932.796
1872112.0,1708757932.834
1874360.0,1708757932.873
1876478.0,1708757932.914
1877930.0,1708757932.953
1880078.0,1708757932.994
1882852.0,1708757933.035
1884933.0,1708757933.074
1887230.0,1708757933.114
1890162.0,1708757933.156
1892393.0,1708757933.195
1894251.0,1708757933.233
1893319.0,1708757933.274
1890668.0,1708757933.313
1891937.0,1708757933.354
1893927.0,1708757933.396
1894155.0,1708757933.434
1894609.0,1708757933.474
1894665.0,1708757933.516
1895793.0,1708757933.555
1894182.0,1708757933.594
1890781.0,1708757933.634
1891372.0,1708757933.673
1892439.0,1708757933.714
1894164.0,1708757933.755
1895972.0,1708757933.795
1898071.0,1708757933.834
1899913.0,1708757933.872
1901942.0,1708757933.912
1904079.0,1708757933.953
1906295.0,1708757933.995
1905936.0,1708757934.033
1903178.0,1708757934.074
1901006.0,1708757934.115
1900054.0,1708757934.154
1899030.0,1708757934.195
1898345.0,1708757934.236
1898292.0,1708757934.275
1898872.0,1708757934.315
1899165.0,1708757934.356
1899549.0,1708757934.394
1901053.0,1708757934.475
1900183.0,1708757934.434
1902088.0,1708757934.514
1903357.0,1708757934.554
1904646.0,1708757934.596
1905786.0,1708757934.635
1907366.0,1708757934.675
1908749.0,1708757934.716
1910305.0,1708757934.753
1909475.0,1708757934.794
1906382.0,1708757934.835
1903240.0,1708757934.874
1901342.0,1708757934.915
1899607.0,1708757934.956
1898812.0,1708757934.996
1898394.0,1708757935.035
1898489.0,1708757935.075
1898513.0,1708757935.114
1898749.0,1708757935.154
1899179.0,1708757935.196
1899759.0,1708757935.235
1900122.0,1708757935.275
1901212.0,1708757935.316
1902930.0,1708757935.355
1904111.0,1708757935.396
1905610.0,1708757935.435
1907893.0,1708757935.474
1909674.0,1708757935.514
1910548.0,1708757935.556
1908643.0,1708757935.595
1906085.0,1708757935.635
1904307.0,1708757935.676
1903305.0,1708757935.716
1902649.0,1708757935.756
1902918.0,1708757935.796
1903517.0,1708757935.834
1903747.0,1708757935.875
1904208.0,1708757935.916
1904957.0,1708757935.955
1905622.0,1708757935.996
1906770.0,1708757936.037
1908185.0,1708757936.076
1910228.0,1708757936.114
1912761.0,1708757936.155
1915949.0,1708757936.195
1918372.0,1708757936.235
1918260.0,1708757936.276
1916778.0,1708757936.315
1915300.0,1708757936.356
1914781.0,1708757936.401
1914560.0,1708757936.433
1915504.0,1708757936.474
1916370.0,1708757936.506
1917770.0,1708757936.545
1919101.0,1708757936.586
1919885.0,1708757936.626
1920830.0,1708757936.666
1921690.0,1708757936.706
1922325.0,1708757936.747
1923350.0,1708757936.786
1924441.0,1708757936.826
1925933.0,1708757936.867
1925795.0,1708757936.906
1922393.0,1708757936.946
1918418.0,1708757936.989
1915670.0,1708757937.027
1913744.0,1708757937.068
1912447.0,1708757937.109
1911913.0,1708757937.148
1911733.0,1708757937.189
1911652.0,1708757937.23
1911463.0,1708757937.267
1911802.0,1708757937.307
1912413.0,1708757937.348
1913508.0,1708757937.388
1914639.0,1708757937.428
1915754.0,1708757937.469
1917098.0,1708757937.508
1918615.0,1708757937.549
1919517.0,1708757937.59
1917143.0,1708757937.627
1913086.0,1708757937.667
1909669.0,1708757937.708
1907334.0,1708757937.748
1906124.0,1708757937.789
1905291.0,1708757937.829
1905085.0,1708757937.868
1904565.0,1708757937.909
1903610.0,1708757937.948
1902831.0,1708757937.988
1902564.0,1708757938.028
1903092.0,1708757938.069
1903623.0,1708757938.108
1904583.0,1708757938.148
1906121.0,1708757938.19
1907547.0,1708757938.229
1908712.0,1708757938.269
1909597.0,1708757938.308
1907381.0,1708757938.347
1903385.0,1708757938.388
1900346.0,1708757938.429
1898863.0,1708757938.468
1897738.0,1708757938.508
1897405.0,1708757938.55
1898302.0,1708757938.589
1899170.0,1708757938.629
1900362.0,1708757938.668
1901626.0,1708757938.708
1902753.0,1708757938.748
1904235.0,1708757938.79
1905884.0,1708757938.828
1909289.0,1708757938.869
1912623.0,1708757938.91
1915791.0,1708757938.948
1919402.0,1708757938.989
1922236.0,1708757939.03
1922329.0,1708757939.067
1919549.0,1708757939.108
1918445.0,1708757939.149
1918520.0,1708757939.189
1920058.0,1708757939.229
1920856.0,1708757939.27
1922801.0,1708757939.309
1926948.0,1708757939.349
1930353.0,1708757939.391
1930290.0,1708757939.428
1929979.0,1708757939.468
1930756.0,1708757939.509
1932169.0,1708757939.548
1934042.0,1708757939.589
1935780.0,1708757939.63
1936866.0,1708757939.669
1938248.0,1708757939.71
1938085.0,1708757939.751
1934251.0,1708757939.788
1929976.0,1708757939.828
1926722.0,1708757939.869
1924618.0,1708757939.909
1923316.0,1708757939.949
1922547.0,1708757939.991
1922361.0,1708757940.029
1922060.0,1708757940.07
1921791.0,1708757940.109
1921475.0,1708757940.148
1921750.0,1708757940.189
1922067.0,1708757940.23
1922609.0,1708757940.269
1923620.0,1708757940.309
1924621.0,1708757940.351
1925796.0,1708757940.39
1927218.0,1708757940.43
1928147.0,1708757940.469
1925516.0,1708757940.508
1921224.0,1708757940.549
1918134.0,1708757940.591
1916002.0,1708757940.629
1914775.0,1708757940.669
1914005.0,1708757940.711
1914000.0,1708757940.75
1914139.0,1708757940.791
1913955.0,1708757940.829
1913853.0,1708757940.868
1913988.0,1708757940.908
1914819.0,1708757940.95
1915566.0,1708757940.99
1916497.0,1708757941.029
1918398.0,1708757941.071
1921050.0,1708757941.11
1924230.0,1708757941.15
1926808.0,1708757941.192
1928056.0,1708757941.228
1925614.0,1708757941.269
1922574.0,1708757941.31
1921194.0,1708757941.349
1920586.0,1708757941.39
1921057.0,1708757941.431
1921464.0,1708757941.47
1922672.0,1708757941.513
1923883.0,1708757941.548
1925085.0,1708757941.589
1926403.0,1708757941.628
1928840.0,1708757941.67
1930715.0,1708757941.709
1933006.0,1708757941.749
1935329.0,1708757941.791
1940907.0,1708757941.83
1949993.0,1708757941.87
1951760.0,1708757941.911
1948200.0,1708757941.951
1942460.0,1708757941.99
1938632.0,1708757942.03
1936655.0,1708757942.069
1935255.0,1708757942.11
1934317.0,1708757942.151
1933372.0,1708757942.191
1932503.0,1708757942.23
1932530.0,1708757942.272
1932488.0,1708757942.311
1933324.0,1708757942.349
1934865.0,1708757942.391
1935976.0,1708757942.429
1936902.0,1708757942.47
1937835.0,1708757942.511
1938180.0,1708757942.55
1937897.0,1708757942.591
1933627.0,1708757942.632
1926614.0,1708757942.671
1920590.0,1708757942.709
1913174.0,1708757942.79
1916063.0,1708757942.751
1913243.0,1708757942.83
1913638.0,1708757942.871
1916012.0,1708757942.91
1919055.0,1708757942.951
1922516.0,1708757942.993
1929406.0,1708757943.07
1925701.0,1708757943.029
1933381.0,1708757943.111
1937468.0,1708757943.15
1941350.0,1708757943.191
1946039.0,1708757943.271
1947278.0,1708757943.311
1944313.0,1708757943.352
1939593.0,1708757943.39
1944002.0,1708757943.232
1936309.0,1708757943.43
1935114.0,1708757943.471
1934353.0,1708757943.51
1934371.0,1708757943.551
1935306.0,1708757943.592
1935617.0,1708757943.631
1936226.0,1708757943.671
1936280.0,1708757943.713
1937222.0,1708757943.75
1938080.0,1708757943.791
1939532.0,1708757943.831
1940935.0,1708757943.87
1942310.0,1708757943.911
1943967.0,1708757943.952
1946288.0,1708757943.992
1948882.0,1708757944.032
1947942.0,1708757944.07
1944356.0,1708757944.109
1939495.0,1708757944.15
1934979.0,1708757944.192
1930899.0,1708757944.23
1928068.0,1708757944.271
1926540.0,1708757944.312
1925075.0,1708757944.351
1923755.0,1708757944.392
1922717.0,1708757944.433
1922625.0,1708757944.472
1924493.0,1708757944.51
1926953.0,1708757944.551
1929796.0,1708757944.591
1932324.0,1708757944.631
1934975.0,1708757944.672
1937262.0,1708757944.711
1935692.0,1708757944.752
1932253.0,1708757944.793
1929082.0,1708757944.832
1927242.0,1708757944.87
1926525.0,1708757944.912
1927346.0,1708757944.951
1928674.0,1708757944.992
1929482.0,1708757945.032
1930381.0,1708757945.072
1931304.0,1708757945.112
1932305.0,1708757945.153
1933748.0,1708757945.191
1935630.0,1708757945.231
1937424.0,1708757945.272
1939358.0,1708757945.311
1941724.0,1708757945.352
1943568.0,1708757945.393
1941410.0,1708757945.432
1937834.0,1708757945.472
1934348.0,1708757945.514
1932093.0,1708757945.551
1931362.0,1708757945.592
1931458.0,1708757945.632
1932265.0,1708757945.671
1933363.0,1708757945.712
1933984.0,1708757945.753
1934868.0,1708757945.793
1935782.0,1708757945.832
1936926.0,1708757945.874
1938882.0,1708757945.911
1940903.0,1708757945.951
1943280.0,1708757945.993
1945916.0,1708757946.032
1948486.0,1708757946.072
1951180.0,1708757946.113
1952319.0,1708757946.152
1948751.0,1708757946.193
1944332.0,1708757946.232
1941252.0,1708757946.271
1939251.0,1708757946.312
1938500.0,1708757946.353
1938788.0,1708757946.393
1939612.0,1708757946.432
1939946.0,1708757946.473
1940546.0,1708757946.513
1941088.0,1708757946.553
1941620.0,1708757946.593
1943187.0,1708757946.633
1945107.0,1708757946.67
1947063.0,1708757946.712
1949267.0,1708757946.751
1951583.0,1708757946.792
1953544.0,1708757946.832
1955777.0,1708757946.872
1958497.0,1708757946.912
1960251.0,1708757946.953
1957562.0,1708757946.993
1953813.0,1708757947.033
1950849.0,1708757947.074
1949362.0,1708757947.111
1948774.0,1708757947.152
1949134.0,1708757947.194
1950059.0,1708757947.232
1950624.0,1708757947.272
1950714.0,1708757947.314
1951078.0,1708757947.353
1951927.0,1708757947.394
1953149.0,1708757947.434
1954642.0,1708757947.471
1956576.0,1708757947.512
1958754.0,1708757947.553
1961258.0,1708757947.593
1962932.0,1708757947.632
1965314.0,1708757947.674
1967899.0,1708757947.713
1970405.0,1708757947.753
1972389.0,1708757947.795
1970132.0,1708757947.831
1965832.0,1708757947.872
1962573.0,1708757947.913
1960933.0,1708757947.952
1960236.0,1708757947.994
1960457.0,1708757948.034
1961687.0,1708757948.073
1962150.0,1708757948.114
1962801.0,1708757948.153
1963450.0,1708757948.193
1964349.0,1708757948.232
1965669.0,1708757948.274
1967349.0,1708757948.313
1969198.0,1708757948.353
1971030.0,1708757948.395
1973393.0,1708757948.434
1975385.0,1708757948.474
1977473.0,1708757948.52
1980099.0,1708757948.559
1982644.0,1708757948.6
1983144.0,1708757948.64
1980395.0,1708757948.679
1977012.0,1708757948.72
1973385.0,1708757948.761
1970516.0,1708757948.8
1969560.0,1708757948.84
1972187.0,1708757948.881
1972570.0,1708757948.92
1972649.0,1708757948.96
1974470.0,1708757949.002
1975439.0,1708757949.04
1976747.0,1708757949.08
1978576.0,1708757949.121
1980930.0,1708757949.16
1983415.0,1708757949.2
1985928.0,1708757949.239
1987763.0,1708757949.278
1989409.0,1708757949.318
1988026.0,1708757949.36
1984029.0,1708757949.4
1980104.0,1708757949.44
1977429.0,1708757949.481
1976200.0,1708757949.52
1976159.0,1708757949.559
1977136.0,1708757949.6
1977429.0,1708757949.639
1977722.0,1708757949.679
1977601.0,1708757949.721
1977910.0,1708757949.76
1978773.0,1708757949.801
1980168.0,1708757949.841
1981756.0,1708757949.88
1983415.0,1708757949.919
1985280.0,1708757949.96
1987239.0,1708757950.0
1989008.0,1708757950.04
1986915.0,1708757950.081
1981875.0,1708757950.12
1976892.0,1708757950.16
1973833.0,1708757950.202
1971549.0,1708757950.239
1970405.0,1708757950.279
1970354.0,1708757950.32
1969703.0,1708757950.359
1969201.0,1708757950.4
1968586.0,1708757950.441
1968067.0,1708757950.48
1968628.0,1708757950.521
1969468.0,1708757950.562
1970506.0,1708757950.6
1971891.0,1708757950.639
1973585.0,1708757950.68
1974898.0,1708757950.72
1976434.0,1708757950.76
1976834.0,1708757950.802
1972664.0,1708757950.84
1966693.0,1708757950.881
1962111.0,1708757950.922
1959415.0,1708757950.959
1957554.0,1708757951.0
1957010.0,1708757951.041
1956718.0,1708757951.08
1956413.0,1708757951.12
1955260.0,1708757951.161
1954830.0,1708757951.201
1955157.0,1708757951.241
1955300.0,1708757951.282
1956388.0,1708757951.319
1957603.0,1708757951.36
1958866.0,1708757951.401
1959881.0,1708757951.44
1961364.0,1708757951.48
1962566.0,1708757951.522
1960508.0,1708757951.561
1954643.0,1708757951.602
1949015.0,1708757951.642
1945089.0,1708757951.679
1943051.0,1708757951.72
1941540.0,1708757951.762
1941149.0,1708757951.799
1940538.0,1708757951.839
1940013.0,1708757951.88
1939313.0,1708757951.92
1939040.0,1708757951.96
1939365.0,1708757952.002
1940315.0,1708757952.04
1941272.0,1708757952.081
1942613.0,1708757952.122
1944064.0,1708757952.161
1945708.0,1708757952.2
1947334.0,1708757952.241
1948951.0,1708757952.28
1950093.0,1708757952.321
1947512.0,1708757952.362
1941727.0,1708757952.402
1936493.0,1708757952.441
1933131.0,1708757952.483
1930919.0,1708757952.522
1930257.0,1708757952.56
1929699.0,1708757952.602
1929182.0,1708757952.64
1928219.0,1708757952.681
1927242.0,1708757952.722
1926550.0,1708757952.761
1925844.0,1708757952.802
1926888.0,1708757952.843
1928736.0,1708757952.882
1931077.0,1708757952.92
1933439.0,1708757952.961
1935683.0,1708757953.001
1938107.0,1708757953.041
1940404.0,1708757953.082
1940178.0,1708757953.121
1935981.0,1708757953.162
1931124.0,1708757953.204
1927689.0,1708757953.24
1925852.0,1708757953.28
1924941.0,1708757953.322
1924532.0,1708757953.361
1924624.0,1708757953.402
1924685.0,1708757953.442
1924326.0,1708757953.482
1924453.0,1708757953.522
1925238.0,1708757953.563
1926488.0,1708757953.601
1927968.0,1708757953.641
1929655.0,1708757953.682
1931333.0,1708757953.721
1933327.0,1708757953.761
1934932.0,1708757953.803
1936964.0,1708757953.842
1939032.0,1708757953.882
1940271.0,1708757953.924
1936729.0,1708757953.96
1931806.0,1708757954.002
1927338.0,1708757954.042
1924709.0,1708757954.081
1922966.0,1708757954.122
1922073.0,1708757954.163
1921859.0,1708757954.203
1921974.0,1708757954.242
1921859.0,1708757954.284
1921864.0,1708757954.32
1922171.0,1708757954.36
1923171.0,1708757954.402
1924477.0,1708757954.441
1926270.0,1708757954.481
1928197.0,1708757954.523
1929834.0,1708757954.562
1932325.0,1708757954.603
1934928.0,1708757954.643
1936592.0,1708757954.682
1937421.0,1708757954.723
1939170.0,1708757954.762
1937460.0,1708757954.802
1933890.0,1708757954.841
1930492.0,1708757954.883
1928712.0,1708757954.922
1927511.0,1708757954.963
1926961.0,1708757955.004
1927181.0,1708757955.043
1927525.0,1708757955.081
1927457.0,1708757955.122
1927190.0,1708757955.162
1927663.0,1708757955.203
1928548.0,1708757955.243
1929449.0,1708757955.282
1930969.0,1708757955.323
1932275.0,1708757955.364
1934002.0,1708757955.404
1935627.0,1708757955.441
1937494.0,1708757955.482
1939234.0,1708757955.522
1941109.0,1708757955.562
1942537.0,1708757955.604
1939810.0,1708757955.642
1935040.0,1708757955.683
1930760.0,1708757955.724
1928092.0,1708757955.763
1926146.0,1708757955.802
1924913.0,1708757955.843
1924764.0,1708757955.882
1924745.0,1708757955.922
1924378.0,1708757955.964
1923976.0,1708757956.004
1924139.0,1708757956.043
1924736.0,1708757956.084
1925680.0,1708757956.122
1927322.0,1708757956.162
1928958.0,1708757956.204
1930637.0,1708757956.242
1932663.0,1708757956.283
1934914.0,1708757956.324
1937000.0,1708757956.363
1939371.0,1708757956.404
1939049.0,1708757956.445
1934758.0,1708757956.482
1930335.0,1708757956.522
1927129.0,1708757956.563
1925388.0,1708757956.603
1924128.0,1708757956.643
1924196.0,1708757956.684
1924025.0,1708757956.764
1924196.0,1708757956.723
1923658.0,1708757956.805
1923558.0,1708757956.842
1924246.0,1708757956.881
1925482.0,1708757956.922
1927041.0,1708757956.961
1928864.0,1708757957.003
1930920.0,1708757957.044
1932967.0,1708757957.083
1935231.0,1708757957.123
1937818.0,1708757957.164
1938118.0,1708757957.204
1934683.0,1708757957.244
1930379.0,1708757957.283
1926909.0,1708757957.322
1925373.0,1708757957.363
1924027.0,1708757957.405
1923944.0,1708757957.443
1924051.0,1708757957.483
1923511.0,1708757957.525
1922814.0,1708757957.564
1922775.0,1708757957.605
1923052.0,1708757957.643
1923984.0,1708757957.682
1925181.0,1708757957.723
1926029.0,1708757957.764
1927087.0,1708757957.804
1928117.0,1708757957.844
1929847.0,1708757957.885
1932215.0,1708757957.924
1933332.0,1708757957.963
1930268.0,1708757958.004
1925896.0,1708757958.043
1921916.0,1708757958.083
1919233.0,1708757958.125
1917297.0,1708757958.164
1916766.0,1708757958.205
1916758.0,1708757958.245
1917058.0,1708757958.284
1916182.0,1708757958.323
1915854.0,1708757958.364
1918154.0,1708757958.404
1920261.0,1708757958.443
1922375.0,1708757958.485
1924202.0,1708757958.524
1926183.0,1708757958.564
1929076.0,1708757958.606
1931369.0,1708757958.645
1933501.0,1708757958.683
1932202.0,1708757958.724
1927394.0,1708757958.763
1922982.0,1708757958.804
1920525.0,1708757958.845
1918678.0,1708757958.884
1917765.0,1708757958.924
1918062.0,1708757958.966
1918234.0,1708757959.004
1918167.0,1708757959.043
1917840.0,1708757959.084
1918228.0,1708757959.124
1919433.0,1708757959.164
1920698.0,1708757959.206
1922234.0,1708757959.244
1923864.0,1708757959.285
1925546.0,1708757959.326
1926919.0,1708757959.363
1928831.0,1708757959.404
1928856.0,1708757959.444
1925094.0,1708757959.483
1920226.0,1708757959.524
1917138.0,1708757959.565
1915491.0,1708757959.605
1914650.0,1708757959.644
1914458.0,1708757959.686
1914669.0,1708757959.725
1914772.0,1708757959.765
1914948.0,1708757959.805
1914952.0,1708757959.844
1915527.0,1708757959.884
1916423.0,1708757959.925
1917756.0,1708757959.964
1919188.0,1708757960.006
1921200.0,1708757960.046
1922898.0,1708757960.085
1925015.0,1708757960.124
1927024.0,1708757960.165
1927012.0,1708757960.205
1922460.0,1708757960.244
1917420.0,1708757960.286
1913920.0,1708757960.325
1911900.0,1708757960.365
1910533.0,1708757960.407
1910118.0,1708757960.444
1910248.0,1708757960.484
1910490.0,1708757960.518
1910210.0,1708757960.557
1910089.0,1708757960.598
1910578.0,1708757960.639
1911628.0,1708757960.678
1912891.0,1708757960.718
1914592.0,1708757960.759
1916041.0,1708757960.798
1918119.0,1708757960.838
1920107.0,1708757960.879
1922385.0,1708757960.918
1922729.0,1708757960.958
1918987.0,1708757961.0
1913700.0,1708757961.038
1909708.0,1708757961.078
1907563.0,1708757961.119
1906024.0,1708757961.158
1905478.0,1708757961.2
1905780.0,1708757961.241
1906029.0,1708757961.28
1906323.0,1708757961.318
1906709.0,1708757961.359
1907492.0,1708757961.399
1908537.0,1708757961.439
1910272.0,1708757961.48
1912268.0,1708757961.519
1914477.0,1708757961.56
1916608.0,1708757961.602
1918803.0,1708757961.64
1921051.0,1708757961.678
1923428.0,1708757961.72
1923648.0,1708757961.759
1920011.0,1708757961.8
1915817.0,1708757961.84
1913277.0,1708757961.879
1911590.0,1708757961.92
1910512.0,1708757961.961
1910777.0,1708757961.998
1911108.0,1708757962.038
1911403.0,1708757962.08
1911810.0,1708757962.119
1912402.0,1708757962.159
1913384.0,1708757962.201
1914826.0,1708757962.24
1916641.0,1708757962.28
1918665.0,1708757962.321
1920886.0,1708757962.36
1922817.0,1708757962.399
1925161.0,1708757962.44
1927745.0,1708757962.479
1927414.0,1708757962.519
1923459.0,1708757962.561
1919526.0,1708757962.6
1917109.0,1708757962.64
1916156.0,1708757962.681
1915322.0,1708757962.721
1915607.0,1708757962.759
1916517.0,1708757962.801
1917099.0,1708757962.839
1917621.0,1708757962.88
1918265.0,1708757962.921
1919331.0,1708757962.96
1920831.0,1708757963.001
1922873.0,1708757963.042
1925008.0,1708757963.079
1927189.0,1708757963.119
1929502.0,1708757963.161
1931973.0,1708757963.2
1933767.0,1708757963.24
1932748.0,1708757963.281
1928743.0,1708757963.32
1925596.0,1708757963.361
1923801.0,1708757963.403
1923075.0,1708757963.439
1922832.0,1708757963.479
1923424.0,1708757963.521
1924446.0,1708757963.56
1925252.0,1708757963.601
1925807.0,1708757963.641
1926526.0,1708757963.68
1928052.0,1708757963.721
1930357.0,1708757963.762
1932260.0,1708757963.8
1935060.0,1708757963.84
1938433.0,1708757963.881
1940843.0,1708757963.92
1944147.0,1708757963.961
1948256.0,1708757964.002
1947673.0,1708757964.041
1944676.0,1708757964.081
1942021.0,1708757964.121
1940287.0,1708757964.16
1939074.0,1708757964.201
1938867.0,1708757964.241
1939306.0,1708757964.28
1939260.0,1708757964.321
1939245.0,1708757964.362
1939465.0,1708757964.402
1939890.0,1708757964.442
1940918.0,1708757964.481
1942102.0,1708757964.52
1943445.0,1708757964.559
1945174.0,1708757964.602
1946471.0,1708757964.64
1948242.0,1708757964.681
1950142.0,1708757964.722
1951620.0,1708757964.761
1950271.0,1708757964.802
1946424.0,1708757964.843
1942923.0,1708757964.88
1941039.0,1708757964.92
1939306.0,1708757964.961
1938111.0,1708757965.001
1938299.0,1708757965.041
1938210.0,1708757965.082
1938514.0,1708757965.121
1938910.0,1708757965.162
1939164.0,1708757965.202
1939940.0,1708757965.24
1940828.0,1708757965.28
1942487.0,1708757965.322
1944068.0,1708757965.361
1945586.0,1708757965.402
1947537.0,1708757965.442
1949556.0,1708757965.482
1952483.0,1708757965.52
1951298.0,1708757965.561
1945436.0,1708757965.601
1941925.0,1708757965.641
1940542.0,1708757965.682
1940875.0,1708757965.721
1941123.0,1708757965.762
1941857.0,1708757965.803
1943311.0,1708757965.842
1943773.0,1708757965.88
1944688.0,1708757965.922
1945480.0,1708757965.961
1946703.0,1708757966.002
1947882.0,1708757966.042
1949447.0,1708757966.081
1951224.0,1708757966.122
1952761.0,1708757966.163
1954711.0,1708757966.201
1957013.0,1708757966.241
1958545.0,1708757966.282
1958074.0,1708757966.321
1954808.0,1708757966.361
1951259.0,1708757966.403
1949188.0,1708757966.442
1947533.0,1708757966.482
1946558.0,1708757966.524
1946589.0,1708757966.56
1946864.0,1708757966.602
1947192.0,1708757966.642
1947335.0,1708757966.681
1947980.0,1708757966.722
1948800.0,1708757966.763
1950005.0,1708757966.803
1951393.0,1708757966.842
1952930.0,1708757966.884
1954714.0,1708757966.921
1956439.0,1708757966.961
1958162.0,1708757967.003
1960285.0,1708757967.042
1961149.0,1708757967.082
1958418.0,1708757967.122
1954646.0,1708757967.16
1951697.0,1708757967.201
1949880.0,1708757967.241
1948483.0,1708757967.281
1947749.0,1708757967.321
1947779.0,1708757967.362
1947840.0,1708757967.402
1947750.0,1708757967.442
1947638.0,1708757967.483
1948248.0,1708757967.522
1949068.0,1708757967.563
1950475.0,1708757967.604
1951785.0,1708757967.643
1953327.0,1708757967.681
1954802.0,1708757967.722
1956439.0,1708757967.762
1958425.0,1708757967.803
1960125.0,1708757967.843
1960403.0,1708757967.882
1957034.0,1708757967.923
1953074.0,1708757967.964
1950565.0,1708757968.002
1949044.0,1708757968.041
1947854.0,1708757968.083
1947573.0,1708757968.122
1947796.0,1708757968.162
1947898.0,1708757968.204
1948109.0,1708757968.243
1948316.0,1708757968.283
1949142.0,1708757968.324
1951181.0,1708757968.361
1953020.0,1708757968.402
1954438.0,1708757968.443
1956870.0,1708757968.482
1959461.0,1708757968.522
1961874.0,1708757968.564
1963975.0,1708757968.603
1966354.0,1708757968.643
1967382.0,1708757968.684
1965606.0,1708757968.722
1962307.0,1708757968.762
1959497.0,1708757968.804
1957975.0,1708757968.842
1956809.0,1708757968.883
1956560.0,1708757968.924
1958240.0,1708757968.963
1960892.0,1708757969.004
1962146.0,1708757969.043
1963663.0,1708757969.082
1965407.0,1708757969.122
1966834.0,1708757969.164
1968153.0,1708757969.203
1969676.0,1708757969.243
1971015.0,1708757969.284
1972531.0,1708757969.324
1974005.0,1708757969.364
1975521.0,1708757969.404
1977439.0,1708757969.442
1978718.0,1708757969.482
1976555.0,1708757969.524
1972871.0,1708757969.563
1970205.0,1708757969.604
1968623.0,1708757969.644
1967624.0,1708757969.683
1967081.0,1708757969.72
1967400.0,1708757969.761
1967765.0,1708757969.801
1968093.0,1708757969.841
1968552.0,1708757969.883
1969211.0,1708757969.922
1970139.0,1708757969.962
1971371.0,1708757970.004
1972889.0,1708757970.043
1974486.0,1708757970.083
1976220.0,1708757970.124
1978025.0,1708757970.163
1979946.0,1708757970.205
1982299.0,1708757970.245
1983491.0,1708757970.282
1981537.0,1708757970.323
1978255.0,1708757970.364
1975965.0,1708757970.404
1974544.0,1708757970.443
1973449.0,1708757970.485
1973185.0,1708757970.524
1973659.0,1708757970.564
1973872.0,1708757970.606
1974283.0,1708757970.642
1974746.0,1708757970.683
1975505.0,1708757970.724
1976417.0,1708757970.763
1977489.0,1708757970.804
1979061.0,1708757970.845
1980931.0,1708757970.884
1982876.0,1708757970.924
1984883.0,1708757970.964
1987345.0,1708757971.003
1989891.0,1708757971.043
1990637.0,1708757971.084
1988330.0,1708757971.124
1985429.0,1708757971.164
1983817.0,1708757971.206
1982697.0,1708757971.244
1981760.0,1708757971.285
1982011.0,1708757971.324
1982168.0,1708757971.363
1982124.0,1708757971.404
1982315.0,1708757971.445
1982779.0,1708757971.484
1983322.0,1708757971.524
1984532.0,1708757971.565
1985858.0,1708757971.605
1988856.0,1708757971.684
1987512.0,1708757971.645
1992140.0,1708757971.764
1990408.0,1708757971.723
1993695.0,1708757971.805
1993733.0,1708757971.844
1991026.0,1708757971.884
1987499.0,1708757971.926
1985337.0,1708757971.965
1983795.0,1708757972.004
1982611.0,1708757972.044
1982467.0,1708757972.083
1982691.0,1708757972.124
1983089.0,1708757972.165
1983262.0,1708757972.205
1983452.0,1708757972.244
1983855.0,1708757972.283
1984940.0,1708757972.323
1986069.0,1708757972.363
1987336.0,1708757972.405
1988876.0,1708757972.443
1990438.0,1708757972.484
1992174.0,1708757972.529
1993982.0,1708757972.568
1994305.0,1708757972.609
1991604.0,1708757972.649
1988248.0,1708757972.688
1985144.0,1708757972.728
1983135.0,1708757972.77
1981703.0,1708757972.809
1980949.0,1708757972.849
1980857.0,1708757972.89
1980612.0,1708757972.929
1980517.0,1708757972.969
1980389.0,1708757973.012
1980448.0,1708757973.05
1981137.0,1708757973.09
1982086.0,1708757973.13
1983248.0,1708757973.169
1984302.0,1708757973.21
1985895.0,1708757973.25
1987021.0,1708757973.29
1988550.0,1708757973.33
1989052.0,1708757973.371
1985839.0,1708757973.411
1981863.0,1708757973.451
1978398.0,1708757973.49
1976098.0,1708757973.529
1974064.0,1708757973.569
1973314.0,1708757973.611
1973138.0,1708757973.65
1973009.0,1708757973.69
1972941.0,1708757973.731
1972711.0,1708757973.77
1972822.0,1708757973.812
1973163.0,1708757973.85
1973822.0,1708757973.889
1974653.0,1708757973.93
1975614.0,1708757973.971
1976903.0,1708757974.011
1978374.0,1708757974.05
1979560.0,1708757974.092
1979848.0,1708757974.131
1976165.0,1708757974.169
1971398.0,1708757974.211
1968080.0,1708757974.25
1965716.0,1708757974.29
1963492.0,1708757974.331
1962351.0,1708757974.37
1962057.0,1708757974.411
1961818.0,1708757974.452
1961460.0,1708757974.491
1961304.0,1708757974.529
1961181.0,1708757974.571
1961563.0,1708757974.61
1962578.0,1708757974.65
1963379.0,1708757974.691
1964740.0,1708757974.73
1965932.0,1708757974.771
1967357.0,1708757974.809
1968812.0,1708757974.848
1969809.0,1708757974.889
1967343.0,1708757974.93
1962575.0,1708757974.969
1959138.0,1708757975.01
1956793.0,1708757975.051
1954994.0,1708757975.09
1953396.0,1708757975.131
1954086.0,1708757975.172
1954026.0,1708757975.212
1954341.0,1708757975.251
1955397.0,1708757975.293
1957829.0,1708757975.33
1959900.0,1708757975.37
1961464.0,1708757975.412
1963230.0,1708757975.45
1964794.0,1708757975.491
1966153.0,1708757975.532
1967443.0,1708757975.571
1968822.0,1708757975.612
1969103.0,1708757975.653
1965771.0,1708757975.69
1961359.0,1708757975.73
1958239.0,1708757975.771
1955955.0,1708757975.811
1953942.0,1708757975.851
1953194.0,1708757975.892
1953072.0,1708757975.931
1952921.0,1708757975.972
1952865.0,1708757976.012
1953152.0,1708757976.05
1953626.0,1708757976.091
1954436.0,1708757976.132
1955713.0,1708757976.171
1956838.0,1708757976.212
1958346.0,1708757976.252
1959628.0,1708757976.292
1961067.0,1708757976.332
1962961.0,1708757976.371
1963906.0,1708757976.411
1962100.0,1708757976.451
1958090.0,1708757976.492
1952589.0,1708757976.571
1954865.0,1708757976.531
1951040.0,1708757976.613
1950043.0,1708757976.652
1950016.0,1708757976.731
1949763.0,1708757976.692
1950040.0,1708757976.77
1950648.0,1708757976.852
1951753.0,1708757976.891
1950277.0,1708757976.812
1953015.0,1708757976.932
1954433.0,1708757976.973
1956455.0,1708757977.013
1958525.0,1708757977.05
1960552.0,1708757977.092
1962608.0,1708757977.131
1964457.0,1708757977.171
1965843.0,1708757977.213
1963902.0,1708757977.252
1959944.0,1708757977.292
1956773.0,1708757977.333
1954815.0,1708757977.372
1953179.0,1708757977.41
1952200.0,1708757977.451
1952622.0,1708757977.49
1952555.0,1708757977.531
1952436.0,1708757977.572
1952728.0,1708757977.612
1952881.0,1708757977.651
1953914.0,1708757977.693
1955357.0,1708757977.732
1956517.0,1708757977.772
1957821.0,1708757977.814
1959560.0,1708757977.852
1960942.0,1708757977.891
1962715.0,1708757977.932
1964281.0,1708757977.971
1963551.0,1708757978.012
1960199.0,1708757978.053
1957273.0,1708757978.092
1955222.0,1708757978.133
1953775.0,1708757978.174
1952650.0,1708757978.212
1952629.0,1708757978.251
1952985.0,1708757978.292
1953378.0,1708757978.332
1953519.0,1708757978.372
1954047.0,1708757978.414
1955099.0,1708757978.452
1956215.0,1708757978.493
1958052.0,1708757978.534
1959502.0,1708757978.571
1961191.0,1708757978.612
1962968.0,1708757978.653
1964922.0,1708757978.692
1966809.0,1708757978.732
1968205.0,1708757978.773
1966936.0,1708757978.813
1963750.0,1708757978.853
1961028.0,1708757978.894
1960117.0,1708757978.931
1959334.0,1708757978.972
1959216.0,1708757979.014
1959673.0,1708757979.052
1960193.0,1708757979.093
1960218.0,1708757979.134
1960772.0,1708757979.173
1960945.0,1708757979.214
1961955.0,1708757979.252
1963390.0,1708757979.292
1964895.0,1708757979.332
1966431.0,1708757979.373
1968253.0,1708757979.413
1969755.0,1708757979.453
1971798.0,1708757979.494
1973446.0,1708757979.533
1973116.0,1708757979.574
1970044.0,1708757979.613
1967244.0,1708757979.652
1965532.0,1708757979.692
1964698.0,1708757979.734
1964264.0,1708757979.773
1964689.0,1708757979.814
1964837.0,1708757979.854
1964982.0,1708757979.893
1965408.0,1708757979.933
1965914.0,1708757979.975
1966979.0,1708757980.012
1968089.0,1708757980.052
1969330.0,1708757980.093
1971128.0,1708757980.133
1972622.0,1708757980.173
1974448.0,1708757980.215
1976312.0,1708757980.253
1978347.0,1708757980.294
1979474.0,1708757980.335
1977785.0,1708757980.372
1974708.0,1708757980.413
1972733.0,1708757980.453
1971189.0,1708757980.493
1970507.0,1708757980.533
1970138.0,1708757980.574
1970351.0,1708757980.614
1970969.0,1708757980.654
1971338.0,1708757980.695
1971743.0,1708757980.732
1972654.0,1708757980.772
1973807.0,1708757980.814
1974820.0,1708757980.853
1976521.0,1708757980.893
1978520.0,1708757980.935
1981595.0,1708757980.974
1983560.0,1708757981.015
1985658.0,1708757981.053
1987971.0,1708757981.092
1989207.0,1708757981.133
1987080.0,1708757981.174
1984960.0,1708757981.214
1983557.0,1708757981.254
1982872.0,1708757981.295
1982350.0,1708757981.334
1982669.0,1708757981.373
1983184.0,1708757981.414
1983223.0,1708757981.453
1983383.0,1708757981.493
1984009.0,1708757981.535
1985025.0,1708757981.574
1986105.0,1708757981.615
1987554.0,1708757981.655
1988759.0,1708757981.694
1990167.0,1708757981.733
1991832.0,1708757981.774
1993579.0,1708757981.814
1995209.0,1708757981.853
1995271.0,1708757981.895
1992890.0,1708757981.934
1989708.0,1708757981.974
1987947.0,1708757982.016
1986525.0,1708757982.053
1985577.0,1708757982.093
1985876.0,1708757982.134
1986948.0,1708757982.174
1987876.0,1708757982.215
1988854.0,1708757982.255
1990074.0,1708757982.294
1992210.0,1708757982.335
1993982.0,1708757982.376
1995260.0,1708757982.414
1996357.0,1708757982.453
1997477.0,1708757982.494
1998547.0,1708757982.533
1999797.0,1708757982.574
2001044.0,1708757982.616
2002529.0,1708757982.654
2004195.0,1708757982.695
2004468.0,1708757982.736
2001929.0,1708757982.775
1998512.0,1708757982.814
1995923.0,1708757982.854
1994040.0,1708757982.894
1992943.0,1708757982.934
1991949.0,1708757982.975
1991819.0,1708757983.015
1991874.0,1708757983.055
1991457.0,1708757983.096
1991521.0,1708757983.133
1991503.0,1708757983.174
1991891.0,1708757983.215
1992471.0,1708757983.254
1993819.0,1708757983.294
1994983.0,1708757983.336
1996283.0,1708757983.375
1997485.0,1708757983.416
1998655.0,1708757983.456
2000089.0,1708757983.493
2001562.0,1708757983.534
2000919.0,1708757983.575
1997911.0,1708757983.615
1994460.0,1708757983.654
1991987.0,1708757983.696
1990591.0,1708757983.735
1989769.0,1708757983.775
1989713.0,1708757983.817
1989333.0,1708757983.853
1989116.0,1708757983.894
1988779.0,1708757983.935
1988864.0,1708757983.974
1989061.0,1708757984.016
1989736.0,1708757984.056
1990758.0,1708757984.095
1991619.0,1708757984.136
1992962.0,1708757984.175
1994259.0,1708757984.215
1995292.0,1708757984.254
1996392.0,1708757984.296
1995666.0,1708757984.335
1991754.0,1708757984.375
1988149.0,1708757984.417
1985885.0,1708757984.456
1984119.0,1708757984.494
1982761.0,1708757984.528
1982473.0,1708757984.567
1982425.0,1708757984.608
1982382.0,1708757984.648
1982193.0,1708757984.688
1982224.0,1708757984.728
1982688.0,1708757984.769
1983371.0,1708757984.808
1984479.0,1708757984.848
1985773.0,1708757984.889
1987085.0,1708757984.928
1988395.0,1708757984.968
1989740.0,1708757985.011
1991257.0,1708757985.048
1992681.0,1708757985.086
1992430.0,1708757985.127
1988882.0,1708757985.167
1985156.0,1708757985.209
1982494.0,1708757985.249
1980691.0,1708757985.288
1979319.0,1708757985.329
1978513.0,1708757985.37
1978561.0,1708757985.41
1978555.0,1708757985.449
1978079.0,1708757985.491
1978368.0,1708757985.53
1979340.0,1708757985.57
1980832.0,1708757985.612
1982700.0,1708757985.648
1984124.0,1708757985.689
1985773.0,1708757985.73
1987298.0,1708757985.769
1988662.0,1708757985.81
1990859.0,1708757985.851
1994063.0,1708757985.89
1997445.0,1708757985.93
1999518.0,1708757985.97
1998742.0,1708757986.01
1996359.0,1708757986.049
1993866.0,1708757986.09
1992234.0,1708757986.13
1990934.0,1708757986.17
1990371.0,1708757986.212
1990146.0,1708757986.25
1990258.0,1708757986.289
1989812.0,1708757986.33
1989216.0,1708757986.369
1989069.0,1708757986.41
1989425.0,1708757986.451
1990023.0,1708757986.49
1990687.0,1708757986.53
1991965.0,1708757986.572
1993177.0,1708757986.611
1994138.0,1708757986.649
1995447.0,1708757986.69
1996896.0,1708757986.73
1998567.0,1708757986.77
1999804.0,1708757986.812
1998133.0,1708757986.85
1994229.0,1708757986.891
1990656.0,1708757986.932
1988169.0,1708757986.969
1986086.0,1708757987.01
1984734.0,1708757987.051
1984006.0,1708757987.09
1983619.0,1708757987.13
1983388.0,1708757987.172
1982949.0,1708757987.211
1982619.0,1708757987.251
1983042.0,1708757987.292
1983674.0,1708757987.329
1984467.0,1708757987.37
1985678.0,1708757987.412
1986993.0,1708757987.45
1988409.0,1708757987.49
1989791.0,1708757987.532
1991208.0,1708757987.571
1992739.0,1708757987.613
1994602.0,1708757987.654
1996075.0,1708757987.691
1996565.0,1708757987.73
1994062.0,1708757987.771
1989991.0,1708757987.811
1986706.0,1708757987.85
1984822.0,1708757987.891
1983005.0,1708757987.931
1981855.0,1708757987.971
1981758.0,1708757988.013
1981125.0,1708757988.049
1980537.0,1708757988.09
1980124.0,1708757988.131
1979970.0,1708757988.17
1980067.0,1708757988.211
1980790.0,1708757988.252
1981971.0,1708757988.291
1982901.0,1708757988.331
1983825.0,1708757988.373
1984989.0,1708757988.41
1986069.0,1708757988.45
1987480.0,1708757988.491
1988473.0,1708757988.53
1986773.0,1708757988.571
1982841.0,1708757988.613
1979462.0,1708757988.651
1976829.0,1708757988.692
1975050.0,1708757988.733
1973994.0,1708757988.77
1973529.0,1708757988.811
1973142.0,1708757988.851
1972389.0,1708757988.891
1972156.0,1708757988.931
1972274.0,1708757988.972
1972295.0,1708757989.012
1972899.0,1708757989.052
1974001.0,1708757989.091
1974996.0,1708757989.13
1976153.0,1708757989.171
1977334.0,1708757989.213
1978976.0,1708757989.251
1979270.0,1708757989.291
1976601.0,1708757989.333
1972026.0,1708757989.372
1968135.0,1708757989.413
1965185.0,1708757989.451
1963286.0,1708757989.49
1961538.0,1708757989.531
1960935.0,1708757989.572
1960184.0,1708757989.612
1959516.0,1708757989.651
1959085.0,1708757989.693
1958728.0,1708757989.732
1959071.0,1708757989.772
1959655.0,1708757989.812
1960417.0,1708757989.851
1961512.0,1708757989.891
1962643.0,1708757989.932
1963764.0,1708757989.972
1965241.0,1708757990.013
1966506.0,1708757990.053
1967944.0,1708757990.092
1969688.0,1708757990.131
1968569.0,1708757990.171
1964039.0,1708757990.211
1959224.0,1708757990.25
1955826.0,1708757990.292
1953039.0,1708757990.331
1950782.0,1708757990.371
1949018.0,1708757990.413
1948352.0,1708757990.452
1947552.0,1708757990.492
1946512.0,1708757990.534
1945615.0,1708757990.573
1945601.0,1708757990.612
1945798.0,1708757990.652
1946171.0,1708757990.691
1947227.0,1708757990.732
1948059.0,1708757990.773
1948959.0,1708757990.813
1950026.0,1708757990.852
1951162.0,1708757990.894
1952321.0,1708757990.933
1953795.0,1708757990.971
1952848.0,1708757991.013
1948649.0,1708757991.051
1943354.0,1708757991.092
1939475.0,1708757991.133
1936862.0,1708757991.172
1934448.0,1708757991.213
1933162.0,1708757991.254
1932459.0,1708757991.293
1931455.0,1708757991.331
1930171.0,1708757991.372
1929432.0,1708757991.412
1929240.0,1708757991.452
1929555.0,1708757991.493
1930048.0,1708757991.532
1931030.0,1708757991.573
1931901.0,1708757991.615
1932969.0,1708757991.653
1934169.0,1708757991.691
1935385.0,1708757991.733
1936363.0,1708757991.772
1933880.0,1708757991.813
1928594.0,1708757991.853
1923464.0,1708757991.892
1920275.0,1708757991.933
1917587.0,1708757991.974
1915528.0,1708757992.012
1914468.0,1708757992.052
1913516.0,1708757992.093
1912928.0,1708757992.132
1911918.0,1708757992.173
1911100.0,1708757992.214
1911270.0,1708757992.253
1911919.0,1708757992.293
1912485.0,1708757992.335
1913478.0,1708757992.372
1914627.0,1708757992.413
1915924.0,1708757992.453
1917073.0,1708757992.492
1918584.0,1708757992.533
1920412.0,1708757992.574
1921636.0,1708757992.614
1918988.0,1708757992.653
1913386.0,1708757992.695
1908378.0,1708757992.734
1904701.0,1708757992.771
1902023.0,1708757992.813
1899306.0,1708757992.852
1897923.0,1708757992.892
1897265.0,1708757992.933
1896563.0,1708757992.973
1895655.0,1708757993.014
1895280.0,1708757993.054
1895243.0,1708757993.093
1896032.0,1708757993.134
1897032.0,1708757993.175
1897787.0,1708757993.213
1899152.0,1708757993.252
1900618.0,1708757993.294
1902215.0,1708757993.333
1903543.0,1708757993.373
1905071.0,1708757993.415
1907177.0,1708757993.453
1908370.0,1708757993.494
1905810.0,1708757993.535
1900509.0,1708757993.572
1896471.0,1708757993.613
1895756.0,1708757993.654
1896652.0,1708757993.693
1896151.0,1708757993.733
1896370.0,1708757993.774
1897059.0,1708757993.814
1896682.0,1708757993.854
1895745.0,1708757993.895
1895324.0,1708757993.932
1895050.0,1708757993.973
1895286.0,1708757994.015
1895750.0,1708757994.053
1896812.0,1708757994.094
1897683.0,1708757994.135
1898747.0,1708757994.174
1899940.0,1708757994.215
1901377.0,1708757994.253
1902903.0,1708757994.293
1902783.0,1708757994.333
1898200.0,1708757994.374
1892902.0,1708757994.414
1888868.0,1708757994.454
1885892.0,1708757994.495
1883554.0,1708757994.534
1882205.0,1708757994.575
1881595.0,1708757994.614
1881181.0,1708757994.653
1880270.0,1708757994.693
1879851.0,1708757994.735
1879926.0,1708757994.774
1880591.0,1708757994.815
1881515.0,1708757994.855
1883041.0,1708757994.894
1884349.0,1708757994.933
1885999.0,1708757994.974
1887498.0,1708757995.014
1889411.0,1708757995.054
1891122.0,1708757995.095
1892846.0,1708757995.134
1891817.0,1708757995.175
1886924.0,1708757995.217
1881873.0,1708757995.253
1879075.0,1708757995.292
1876665.0,1708757995.334
1874473.0,1708757995.373
1873533.0,1708757995.414
1873241.0,1708757995.455
1872971.0,1708757995.494
1872553.0,1708757995.534
1872957.0,1708757995.576
1873276.0,1708757995.616
1874260.0,1708757995.653
1876315.0,1708757995.694
1878734.0,1708757995.734
1880787.0,1708757995.774
1883016.0,1708757995.816
1885004.0,1708757995.854
1887203.0,1708757995.895
1889084.0,1708757995.936
1891418.0,1708757995.973
1893733.0,1708757996.014
1895601.0,1708757996.055
1893275.0,1708757996.094
1888546.0,1708757996.134
1885203.0,1708757996.176
1883010.0,1708757996.215
1881304.0,1708757996.255
1880364.0,1708757996.296
1880314.0,1708757996.333
1880106.0,1708757996.374
1879882.0,1708757996.416
1880140.0,1708757996.454
1880367.0,1708757996.494
1881428.0,1708757996.539
1882654.0,1708757996.578
1884273.0,1708757996.619
1886300.0,1708757996.659
1888046.0,1708757996.698
1890266.0,1708757996.738
1892033.0,1708757996.779
1894202.0,1708757996.819
1896736.0,1708757996.858
1898846.0,1708757996.899
1897175.0,1708757996.938
1893214.0,1708757996.979
1890331.0,1708757997.021
1888414.0,1708757997.06
1886996.0,1708757997.098
1886005.0,1708757997.139
1886265.0,1708757997.178
1886715.0,1708757997.219
1887336.0,1708757997.26
1887915.0,1708757997.299
1888537.0,1708757997.339
1889944.0,1708757997.381
1891850.0,1708757997.42
1894182.0,1708757997.458
1895394.0,1708757997.499
1895741.0,1708757997.538
1895550.0,1708757997.579
1897313.0,1708757997.621
1901306.0,1708757997.659
1905769.0,1708757997.699
1909604.0,1708757997.741
1914165.0,1708757997.78
1915613.0,1708757997.819
1914181.0,1708757997.858
1911185.0,1708757997.898
1909854.0,1708757997.939
1909038.0,1708757997.98
1908385.0,1708757998.02
1908816.0,1708757998.06
1909904.0,1708757998.101
1910772.0,1708757998.14
1911830.0,1708757998.178
1912451.0,1708757998.22
1913651.0,1708757998.259
1915711.0,1708757998.299
1917280.0,1708757998.34
1919696.0,1708757998.38
1921846.0,1708757998.421
1923993.0,1708757998.461
1926861.0,1708757998.5
1929117.0,1708757998.539
1931779.0,1708757998.58
1934431.0,1708757998.62
1937141.0,1708757998.659
1939803.0,1708757998.7
1942059.0,1708757998.74
1941459.0,1708757998.78
1938631.0,1708757998.822
1936237.0,1708757998.86
1935300.0,1708757998.899
1934951.0,1708757998.94
1934847.0,1708757998.979
1935591.0,1708757999.02
1936279.0,1708757999.061
1937127.0,1708757999.1
1937830.0,1708757999.14
1938447.0,1708757999.182
1939631.0,1708757999.219
1941116.0,1708757999.259
1942995.0,1708757999.3
1944691.0,1708757999.34
1946908.0,1708757999.38
1948961.0,1708757999.422
1950833.0,1708757999.46
1953087.0,1708757999.501
1955352.0,1708757999.54
1955784.0,1708757999.579
1953320.0,1708757999.62
1950916.0,1708757999.661
1949329.0,1708757999.7
1948888.0,1708757999.74
1949115.0,1708757999.781
1949769.0,1708757999.821
1950701.0,1708757999.861
1951482.0,1708757999.9
1952271.0,1708757999.939
1953262.0,1708757999.98
1954412.0,1708758000.022
1956100.0,1708758000.059
1957959.0,1708758000.093
1960120.0,1708758000.135
1961949.0,1708758000.174
1964099.0,1708758000.214
1966255.0,1708758000.255
1968461.0,1708758000.294
1970448.0,1708758000.334
1970244.0,1708758000.375
1967732.0,1708758000.415
1964999.0,1708758000.454
1963443.0,1708758000.495
1963003.0,1708758000.534
1962581.0,1708758000.574
1962870.0,1708758000.616
1963924.0,1708758000.655
1964265.0,1708758000.695
1964796.0,1708758000.736
1965495.0,1708758000.775
1966170.0,1708758000.816
1967404.0,1708758000.856
1969158.0,1708758000.895
1970974.0,1708758000.935
1973003.0,1708758000.976
1975048.0,1708758001.016
1976944.0,1708758001.056
1978883.0,1708758001.097
1980353.0,1708758001.136
1978936.0,1708758001.176
1976425.0,1708758001.217
1975202.0,1708758001.256
1975223.0,1708758001.296
1974936.0,1708758001.337
1974475.0,1708758001.376
1974822.0,1708758001.417
1975608.0,1708758001.457
1976059.0,1708758001.496
1976509.0,1708758001.536
1977036.0,1708758001.578
1977922.0,1708758001.617
1978680.0,1708758001.657
1980048.0,1708758001.698
1981286.0,1708758001.737
1982707.0,1708758001.777
1984037.0,1708758001.819
1985670.0,1708758001.857
1985014.0,1708758001.897
1981412.0,1708758001.939
1977709.0,1708758001.978
1975212.0,1708758002.018
1973479.0,1708758002.059
1972356.0,1708758002.098
1971676.0,1708758002.138
1971549.0,1708758002.179
1971145.0,1708758002.219
1971057.0,1708758002.258
1970763.0,1708758002.299
1971558.0,1708758002.338
1972152.0,1708758002.378
1973244.0,1708758002.42
1974488.0,1708758002.458
1975995.0,1708758002.5
1977642.0,1708758002.541
1979217.0,1708758002.58
1980865.0,1708758002.621
1981321.0,1708758002.662
1978472.0,1708758002.701
1974390.0,1708758002.741
1971293.0,1708758002.782
1969379.0,1708758002.822
1967844.0,1708758002.862
1966930.0,1708758002.903
1966993.0,1708758002.942
1966805.0,1708758002.979
1967619.0,1708758003.021
1967997.0,1708758003.059
1967628.0,1708758003.1
1966782.0,1708758003.142
1964989.0,1708758003.181
1963434.0,1708758003.222
1965319.0,1708758003.262
1968636.0,1708758003.301
1971306.0,1708758003.342
1974095.0,1708758003.383
1972414.0,1708758003.423
1969136.0,1708758003.463
1966251.0,1708758003.502
1964498.0,1708758003.541
1963331.0,1708758003.581
1962840.0,1708758003.623
1963371.0,1708758003.662
1962875.0,1708758003.702
1962646.0,1708758003.743
1962559.0,1708758003.782
1962904.0,1708758003.823
1963295.0,1708758003.862
1964282.0,1708758003.901
1965431.0,1708758003.942
1967031.0,1708758003.983
1968222.0,1708758004.023
1969560.0,1708758004.062
1971290.0,1708758004.104
1971959.0,1708758004.143
1968951.0,1708758004.181
1964148.0,1708758004.223
1960403.0,1708758004.261
1957760.0,1708758004.302
1955920.0,1708758004.343
1953972.0,1708758004.382
1953417.0,1708758004.423
1953021.0,1708758004.464
1952465.0,1708758004.501
1952142.0,1708758004.542
1951841.0,1708758004.583
1952151.0,1708758004.623
1953128.0,1708758004.662
1953896.0,1708758004.703
1955230.0,1708758004.743
1956645.0,1708758004.783
1957900.0,1708758004.825
1959503.0,1708758004.861
1961249.0,1708758004.902
1962683.0,1708758004.943
1960787.0,1708758004.982
1956407.0,1708758005.023
1952381.0,1708758005.064
1949579.0,1708758005.103
1947554.0,1708758005.143
1945646.0,1708758005.183
1945344.0,1708758005.222
1944765.0,1708758005.262
1944126.0,1708758005.303
1943701.0,1708758005.342
1943543.0,1708758005.383
1943944.0,1708758005.425
1944355.0,1708758005.463
1945627.0,1708758005.504
1946670.0,1708758005.541
1948331.0,1708758005.58
1949555.0,1708758005.621
1951171.0,1708758005.662
1952949.0,1708758005.701
1954452.0,1708758005.742
1956478.0,1708758005.783
1957917.0,1708758005.823
1955429.0,1708758005.863
1951414.0,1708758005.904
1947951.0,1708758005.943
1946098.0,1708758005.983
1944459.0,1708758006.025
1944164.0,1708758006.062
1943948.0,1708758006.102
1944041.0,1708758006.143
1943706.0,1708758006.183
1943804.0,1708758006.224
1944059.0,1708758006.264
1944709.0,1708758006.303
1945699.0,1708758006.344
1946725.0,1708758006.385
1948396.0,1708758006.423
1949625.0,1708758006.462
1951476.0,1708758006.504
1953121.0,1708758006.543
1952142.0,1708758006.583
1947873.0,1708758006.625
1943810.0,1708758006.663
1941382.0,1708758006.704
1939525.0,1708758006.745
1938526.0,1708758006.782
1938515.0,1708758006.823
1938953.0,1708758006.864
1938886.0,1708758006.903
1938911.0,1708758006.943
1939141.0,1708758006.985
1939701.0,1708758007.024
1940682.0,1708758007.064
1942226.0,1708758007.103
1943780.0,1708758007.143
1945587.0,1708758007.183
1947258.0,1708758007.225
1949021.0,1708758007.263
1949116.0,1708758007.304
1945437.0,1708758007.345
1940969.0,1708758007.384
1937612.0,1708758007.425
1935116.0,1708758007.463
1932962.0,1708758007.503
1932144.0,1708758007.543
1931699.0,1708758007.584
1930973.0,1708758007.624
1930680.0,1708758007.664
1930596.0,1708758007.705
1930731.0,1708758007.744
1931347.0,1708758007.785
1932581.0,1708758007.824
1933726.0,1708758007.863
1935092.0,1708758007.903
1936580.0,1708758007.945
1938056.0,1708758007.984
1940098.0,1708758008.025
1940215.0,1708758008.065
1936706.0,1708758008.104
1931730.0,1708758008.144
1928088.0,1708758008.182
1925186.0,1708758008.223
1923152.0,1708758008.263
1921767.0,1708758008.304
1921634.0,1708758008.343
1921210.0,1708758008.383
1920827.0,1708758008.425
1920642.0,1708758008.464
1920858.0,1708758008.504
1921095.0,1708758008.548
1921913.0,1708758008.588
1923307.0,1708758008.628
1924435.0,1708758008.669
1925752.0,1708758008.708
1927270.0,1708758008.748
1928871.0,1708758008.789
1931020.0,1708758008.829
1932139.0,1708758008.868
1928878.0,1708758008.909
1924179.0,1708758008.948
1919581.0,1708758008.988
1917025.0,1708758009.029
1915186.0,1708758009.067
1914651.0,1708758009.108
1915018.0,1708758009.149
1915034.0,1708758009.188
1914533.0,1708758009.229
1914405.0,1708758009.27
1914699.0,1708758009.309
1914894.0,1708758009.349
1915692.0,1708758009.388
1916671.0,1708758009.428
1917893.0,1708758009.468
1919096.0,1708758009.509
1920446.0,1708758009.548
1921624.0,1708758009.589
1923110.0,1708758009.631
1923639.0,1708758009.669
1920631.0,1708758009.709
1915590.0,1708758009.749
1911498.0,1708758009.788
1908568.0,1708758009.829
1906227.0,1708758009.869
1904835.0,1708758009.908
1904324.0,1708758009.949
1903662.0,1708758009.99
1903151.0,1708758010.03
1902362.0,1708758010.068
1902585.0,1708758010.109
1903066.0,1708758010.148
1903858.0,1708758010.188
1904922.0,1708758010.23
1906028.0,1708758010.269
1907403.0,1708758010.309
1908909.0,1708758010.351
1910194.0,1708758010.39
1912118.0,1708758010.428
1913548.0,1708758010.469
1911607.0,1708758010.508
1906515.0,1708758010.549
1901733.0,1708758010.59
1898367.0,1708758010.63
1895737.0,1708758010.666
1893513.0,1708758010.708
1892639.0,1708758010.747
1892375.0,1708758010.788
1891849.0,1708758010.83
1891132.0,1708758010.868
1890777.0,1708758010.908
1891103.0,1708758010.95
1891904.0,1708758010.989
1893062.0,1708758011.03
1894368.0,1708758011.071
1895938.0,1708758011.11
1897266.0,1708758011.148
1898825.0,1708758011.189
1900499.0,1708758011.229
1902477.0,1708758011.269
1904492.0,1708758011.31
1906822.0,1708758011.349
1908492.0,1708758011.39
1906111.0,1708758011.432
1900944.0,1708758011.47
1896530.0,1708758011.508
1893651.0,1708758011.55
1891241.0,1708758011.589
1889515.0,1708758011.63
1889253.0,1708758011.67
1888740.0,1708758011.709
1888265.0,1708758011.75
1888004.0,1708758011.791
1888056.0,1708758011.831
1888539.0,1708758011.868
1889343.0,1708758011.91
1890917.0,1708758011.949
1892106.0,1708758011.989
1893925.0,1708758012.031
1895786.0,1708758012.069
1897446.0,1708758012.109
1899265.0,1708758012.151
1901364.0,1708758012.19
1900055.0,1708758012.271
1895625.0,1708758012.31
1892015.0,1708758012.35
1902625.0,1708758012.23
1890095.0,1708758012.391
1888412.0,1708758012.47
1889096.0,1708758012.431
1888832.0,1708758012.511
1888960.0,1708758012.55
1888912.0,1708758012.59
1889116.0,1708758012.632
1889818.0,1708758012.671
1892733.0,1708758012.752
1894375.0,1708758012.791
1891114.0,1708758012.711
1896312.0,1708758012.832
1898006.0,1708758012.872
1900282.0,1708758012.911
1902499.0,1708758012.951
1904668.0,1708758012.992
1903527.0,1708758013.032
1899305.0,1708758013.071
1895703.0,1708758013.113
1891466.0,1708758013.192
1890022.0,1708758013.233
1892973.0,1708758013.152
1889669.0,1708758013.272
1890270.0,1708758013.312
1890733.0,1708758013.353
1891825.0,1708758013.392
1892800.0,1708758013.433
1892288.0,1708758013.473
1892369.0,1708758013.512
1894144.0,1708758013.552
1896595.0,1708758013.593
1899940.0,1708758013.633
1903308.0,1708758013.673
1906236.0,1708758013.714
1909340.0,1708758013.753
1912814.0,1708758013.793
1915952.0,1708758013.835
1919383.0,1708758013.873
1921880.0,1708758013.913
1920383.0,1708758013.954
1916979.0,1708758013.993
1913893.0,1708758014.034
1912055.0,1708758014.075
1910106.0,1708758014.114
1908644.0,1708758014.154
1908581.0,1708758014.195
1908351.0,1708758014.235
1908651.0,1708758014.274
1908480.0,1708758014.315
1909049.0,1708758014.354
1910590.0,1708758014.394
1912337.0,1708758014.436
1913998.0,1708758014.474
1917375.0,1708758014.556
1915849.0,1708758014.514
1919273.0,1708758014.595
1921590.0,1708758014.635
1923847.0,1708758014.676
1926373.0,1708758014.715
1928914.0,1708758014.755
1928377.0,1708758014.836
1924401.0,1708758014.875
1921536.0,1708758014.916
1919830.0,1708758014.955
1930524.0,1708758014.796
1918877.0,1708758014.995
1918633.0,1708758015.038
1919015.0,1708758015.077
1919543.0,1708758015.112
1919849.0,1708758015.151
1920064.0,1708758015.19
1920663.0,1708758015.231
1921590.0,1708758015.272
1922904.0,1708758015.311
1924197.0,1708758015.351
1925967.0,1708758015.392
1927616.0,1708758015.432
1929360.0,1708758015.472
1931331.0,1708758015.511
1933305.0,1708758015.55
1932283.0,1708758015.591
1928292.0,1708758015.633
1924756.0,1708758015.671
1922596.0,1708758015.711
1921362.0,1708758015.752
1920765.0,1708758015.788
1921098.0,1708758015.83
1921414.0,1708758015.871
1921140.0,1708758015.91
1921176.0,1708758015.95
1921531.0,1708758015.992
1922073.0,1708758016.031
1923541.0,1708758016.071
1925399.0,1708758016.112
1927427.0,1708758016.152
1929468.0,1708758016.192
1931550.0,1708758016.234
1933569.0,1708758016.27
1935495.0,1708758016.311
1934456.0,1708758016.352
1930252.0,1708758016.391
1922275.0,1708758016.512
1921005.0,1708758016.552
1920692.0,1708758016.593
1921121.0,1708758016.631
1921455.0,1708758016.671
1921776.0,1708758016.712
1922123.0,1708758016.751
1922957.0,1708758016.792
1923934.0,1708758016.833
1925269.0,1708758016.872
1927041.0,1708758016.912
1923859.0,1708758016.473
1926306.0,1708758016.432
1928897.0,1708758016.954
1930631.0,1708758016.991
1932340.0,1708758017.032
1934035.0,1708758017.072
1935726.0,1708758017.111
1937792.0,1708758017.152
1936168.0,1708758017.193
1931768.0,1708758017.233
1925184.0,1708758017.314
1927983.0,1708758017.272
1922398.0,1708758017.391
1923487.0,1708758017.351
1921919.0,1708758017.433
1922189.0,1708758017.471
1922435.0,1708758017.512
1922864.0,1708758017.592
1923768.0,1708758017.633
1924828.0,1708758017.674
1926284.0,1708758017.711
1927828.0,1708758017.751
1930081.0,1708758017.793
1931941.0,1708758017.832
1933804.0,1708758017.872
1936067.0,1708758017.913
1937995.0,1708758017.952
1940311.0,1708758017.993
1942474.0,1708758018.033
1922531.0,1708758017.553
1941548.0,1708758018.071
1937254.0,1708758018.112
1932929.0,1708758018.153
1930298.0,1708758018.192
1928772.0,1708758018.233
1928674.0,1708758018.274
1929560.0,1708758018.312
1930798.0,1708758018.349
1931074.0,1708758018.43
1931502.0,1708758018.39
1930738.0,1708758018.471
1930386.0,1708758018.512
1931272.0,1708758018.551
1933687.0,1708758018.592
1937025.0,1708758018.633
1939558.0,1708758018.672
1942668.0,1708758018.754
1944179.0,1708758018.793
1945804.0,1708758018.834
1941357.0,1708758018.712
1947324.0,1708758018.874
1941577.0,1708758018.952
1937026.0,1708758018.993
1934000.0,1708758019.033
1932019.0,1708758019.073
1930379.0,1708758019.114
1929550.0,1708758019.153
1929492.0,1708758019.194
1945857.0,1708758018.911
1929131.0,1708758019.233
1928480.0,1708758019.272
1928470.0,1708758019.312
1928915.0,1708758019.354
1929725.0,1708758019.393
1930909.0,1708758019.434
1932502.0,1708758019.474
1933991.0,1708758019.513
1935503.0,1708758019.554
1937301.0,1708758019.593
1938982.0,1708758019.633
1940903.0,1708758019.672
1944500.0,1708758019.753
1942978.0,1708758019.714
1942428.0,1708758019.793
1937636.0,1708758019.835
1933358.0,1708758019.874
1928739.0,1708758019.953
1930852.0,1708758019.912
1926495.0,1708758020.034
1925706.0,1708758020.113
1925316.0,1708758020.154
1925503.0,1708758020.195
1925826.0,1708758020.233
1926121.0,1708758020.074
1926863.0,1708758019.993
1926626.0,1708758020.272
1927878.0,1708758020.314
1929374.0,1708758020.353
1930617.0,1708758020.393
1932764.0,1708758020.435
1934443.0,1708758020.474
1935979.0,1708758020.514
1938024.0,1708758020.553
1939908.0,1708758020.592
1943792.0,1708758020.67
1942178.0,1708758020.631
1941912.0,1708758020.709
1937521.0,1708758020.748
1931015.0,1708758020.826
1927872.0,1708758020.904
1927516.0,1708758020.982
1933438.0,1708758020.787
1927177.0,1708758021.021
1927120.0,1708758021.06
1926780.0,1708758021.099
1927201.0,1708758021.138
1928032.0,1708758021.177
1929141.0,1708758021.216
1930748.0,1708758021.255
1931967.0,1708758021.294
1933245.0,1708758021.333
1934861.0,1708758021.372
1927663.0,1708758020.943
1929156.0,1708758020.865
1936434.0,1708758021.411
1938139.0,1708758021.45
1937229.0,1708758021.489
1933351.0,1708758021.528
1928971.0,1708758021.567
1926061.0,1708758021.606
1924600.0,1708758021.645
1923592.0,1708758021.684
1923134.0,1708758021.723
1923060.0,1708758021.801
1923486.0,1708758021.762
1922998.0,1708758021.84
1923147.0,1708758021.879
1923641.0,1708758021.918
1925973.0,1708758021.996
1927180.0,1708758022.035
1924432.0,1708758021.957
1928969.0,1708758022.075
1930567.0,1708758022.115
1932991.0,1708758022.155
1935855.0,1708758022.195
1938656.0,1708758022.235
1937105.0,1708758022.355
1940860.0,1708758022.315
1941197.0,1708758022.275
1931962.0,1708758022.395
1928120.0,1708758022.435
1925987.0,1708758022.515
1925737.0,1708758022.475
1928684.0,1708758022.595
1927922.0,1708758022.555
1928579.0,1708758022.675
1927746.0,1708758022.755
1928236.0,1708758022.795
1929033.0,1708758022.835
1930258.0,1708758022.875
1931740.0,1708758022.915
1934736.0,1708758022.955
1929192.0,1708758022.635
1936603.0,1708758022.995
1928051.0,1708758022.715
1941210.0,1708758023.075
1938490.0,1708758023.035
1944393.0,1708758023.115
1946539.0,1708758023.155
1948524.0,1708758023.195
1946591.0,1708758023.235
1941957.0,1708758023.275
1937231.0,1708758023.315
1933753.0,1708758023.355
1931155.0,1708758023.395
1929247.0,1708758023.435
1928062.0,1708758023.475
1927436.0,1708758023.515
1926912.0,1708758023.555
1926422.0,1708758023.595
1926255.0,1708758023.635
1926143.0,1708758023.675
1926861.0,1708758023.715
1928126.0,1708758023.755
1929236.0,1708758023.795
1930672.0,1708758023.835
1932158.0,1708758023.875
1933554.0,1708758023.915
1934827.0,1708758023.955
1936497.0,1708758023.995
1938286.0,1708758024.035
1940698.0,1708758024.075
1941489.0,1708758024.115
1938623.0,1708758024.155
1934255.0,1708758024.195
1930277.0,1708758024.235
1928081.0,1708758024.275
1925963.0,1708758024.315
1924899.0,1708758024.355
1924298.0,1708758024.395
1922709.0,1708758024.475
1923436.0,1708758024.435
1922076.0,1708758024.515
1922533.0,1708758024.595
1922064.0,1708758024.555
1923557.0,1708758024.635
1927118.0,1708758024.715
1924736.0,1708758024.675
1930644.0,1708758024.755
1934616.0,1708758024.795
1937114.0,1708758024.835
1941876.0,1708758024.915
1940148.0,1708758024.875
1940253.0,1708758024.955
1937363.0,1708758024.995
1935032.0,1708758025.035
1933147.0,1708758025.075
1931284.0,1708758025.155
1931852.0,1708758025.115
1930677.0,1708758025.195
1929006.0,1708758025.275
1928044.0,1708758025.315
1927790.0,1708758025.355
1928158.0,1708758025.395
1929853.0,1708758025.235
1928762.0,1708758025.435
1929342.0,1708758025.475
1929422.0,1708758025.515
1929952.0,1708758025.555
1930547.0,1708758025.595
1927612.0,1708758025.635
1921816.0,1708758025.675
1916019.0,1708758025.715
1912310.0,1708758025.755
1909834.0,1708758025.795
1907992.0,1708758025.835
1907015.0,1708758025.875
1905979.0,1708758025.915
1904245.0,1708758025.955
1902614.0,1708758025.995
1900975.0,1708758026.035
1899911.0,1708758026.075
1899654.0,1708758026.115
1899686.0,1708758026.155
1900522.0,1708758026.195
1901183.0,1708758026.235
1900106.0,1708758026.275
1895090.0,1708758026.315
1889861.0,1708758026.355
1886351.0,1708758026.395
1883529.0,1708758026.435
1881183.0,1708758026.475
1880471.0,1708758026.515
1880185.0,1708758026.555
1879450.0,1708758026.595
1878432.0,1708758026.635
1877712.0,1708758026.675
1877922.0,1708758026.715
1878692.0,1708758026.755
1879770.0,1708758026.795
1880904.0,1708758026.835
1882335.0,1708758026.875
1883370.0,1708758026.915
1880368.0,1708758026.955
1873953.0,1708758026.995
1868818.0,1708758027.035
1865766.0,1708758027.075
1863466.0,1708758027.115
1861494.0,1708758027.155
1860677.0,1708758027.195
1860037.0,1708758027.235
1859620.0,1708758027.275
1859064.0,1708758027.315
1858951.0,1708758027.355
1859564.0,1708758027.395
1860618.0,1708758027.435
1862215.0,1708758027.475
1864041.0,1708758027.515
1866015.0,1708758027.555
1868139.0,1708758027.595
1870000.0,1708758027.635
1872051.0,1708758027.675
1871776.0,1708758027.715
1867258.0,1708758027.755
1861643.0,1708758027.795
1857274.0,1708758027.835
1854453.0,1708758027.875
1852352.0,1708758027.915
1851369.0,1708758027.955
1851978.0,1708758027.995
1853269.0,1708758028.035
1854047.0,1708758028.075
1854931.0,1708758028.115
1856598.0,1708758028.155
1858077.0,1708758028.195
1860166.0,1708758028.235
1862168.0,1708758028.275
1864493.0,1708758028.315
1867132.0,1708758028.355
1870367.0,1708758028.395
1873064.0,1708758028.435
1876232.0,1708758028.475
1882565.0,1708758028.555
1879391.0,1708758028.515
1882587.0,1708758028.635
1884744.0,1708758028.595
1875448.0,1708758028.755
1876791.0,1708758028.715
1874715.0,1708758028.795
1878874.0,1708758028.675
1874741.0,1708758028.875
1874333.0,1708758028.835
1876512.0,1708758028.955
1875557.0,1708758028.915
1881187.0,1708758029.035
1878483.0,1708758028.995
1884537.0,1708758029.075
1886910.0,1708758029.115
1889374.0,1708758029.155
1892166.0,1708758029.195
1894756.0,1708758029.235
1897479.0,1708758029.275
1899979.0,1708758029.315
1903094.0,1708758029.355
1906178.0,1708758029.395
1907350.0,1708758029.435
1906542.0,1708758029.475
1906811.0,1708758029.515
1906336.0,1708758029.555
1906004.0,1708758029.595
1905987.0,1708758029.635
1906368.0,1708758029.675
1907392.0,1708758029.715
1908433.0,1708758029.755
1910000.0,1708758029.795
1911679.0,1708758029.835
1913896.0,1708758029.875
1916079.0,1708758029.915
1918929.0,1708758029.955
1922144.0,1708758029.995
1925288.0,1708758030.035
1928429.0,1708758030.075
1931530.0,1708758030.115
1934594.0,1708758030.155
1937490.0,1708758030.195
1940409.0,1708758030.235
1943258.0,1708758030.275
1946148.0,1708758030.315
1948970.0,1708758030.355
1948198.0,1708758030.395
1947091.0,1708758030.435
1946778.0,1708758030.475
1946916.0,1708758030.515
1948078.0,1708758030.555
1949238.0,1708758030.595
1950511.0,1708758030.635
1951910.0,1708758030.675
1953780.0,1708758030.715
1955181.0,1708758030.755
1956939.0,1708758030.795
1958906.0,1708758030.835
1961372.0,1708758030.875
1963341.0,1708758030.915
1965765.0,1708758030.955
1968561.0,1708758030.995
1971272.0,1708758031.035
1973556.0,1708758031.075
1976153.0,1708758031.115
1978543.0,1708758031.155
1978418.0,1708758031.195
1977624.0,1708758031.235
1976998.0,1708758031.275
1977297.0,1708758031.315
1978222.0,1708758031.355
1979333.0,1708758031.395
1980695.0,1708758031.435
1982007.0,1708758031.475
1982965.0,1708758031.515
1984025.0,1708758031.555
1985570.0,1708758031.595
1987258.0,1708758031.635
1989545.0,1708758031.675
1991528.0,1708758031.715
1993916.0,1708758031.755
1995903.0,1708758031.795
1998172.0,1708758031.835
2000581.0,1708758031.875
2002952.0,1708758031.915
2004876.0,1708758031.955
2003942.0,1708758031.995
2002569.0,1708758032.035
2001892.0,1708758032.075
2001934.0,1708758032.115
2002629.0,1708758032.155
2003505.0,1708758032.195
2004855.0,1708758032.235
2006436.0,1708758032.275
2007949.0,1708758032.315
2009312.0,1708758032.355
2012568.0,1708758032.395
2015047.0,1708758032.435
2017581.0,1708758032.475
2020578.0,1708758032.556
2024595.0,1708758032.595
2027761.0,1708758032.636
2029199.0,1708758032.676
2030846.0,1708758032.715
2032544.0,1708758032.755
2034570.0,1708758032.796
2033954.0,1708758032.836
2031748.0,1708758032.876
2030003.0,1708758032.917
2028508.0,1708758032.956
2027844.0,1708758032.996
2027396.0,1708758033.038
2028504.0,1708758033.116
2027812.0,1708758033.076
2028663.0,1708758033.157
2029083.0,1708758033.196
2029679.0,1708758033.237
2030239.0,1708758033.277
2030759.0,1708758033.316
2032020.0,1708758033.357
2033011.0,1708758033.398
2034625.0,1708758033.437
2035640.0,1708758033.477
2037267.0,1708758033.518
2038697.0,1708758033.557
2040379.0,1708758033.597
2042396.0,1708758033.639
2042857.0,1708758033.677
2040857.0,1708758033.717
2038140.0,1708758033.758
2036019.0,1708758033.797
2034948.0,1708758033.838
2034184.0,1708758033.879
2033917.0,1708758033.918
2033959.0,1708758033.958
2033809.0,1708758033.999
2033611.0,1708758034.039
2033529.0,1708758034.078
2033507.0,1708758034.119
2033647.0,1708758034.158
2034566.0,1708758034.198
2035187.0,1708758034.24
2036560.0,1708758034.278
2037330.0,1708758034.319
2038639.0,1708758034.36
2039835.0,1708758034.399
2038698.0,1708758034.439
2035626.0,1708758034.48
2032648.0,1708758034.519
2030876.0,1708758034.559
2028287.0,1708758034.6
2026895.0,1708758034.64
2026764.0,1708758034.679
2027208.0,1708758034.72
2028070.0,1708758034.759
2028334.0,1708758034.8
2028409.0,1708758034.841
2028885.0,1708758034.88
2029553.0,1708758034.92
2030658.0,1708758034.961
2031501.0,1708758035.0
2032555.0,1708758035.041
2033529.0,1708758035.081
2034502.0,1708758035.12
2035726.0,1708758035.16
2036657.0,1708758035.201
2034492.0,1708758035.241
2030392.0,1708758035.281
2026323.0,1708758035.322
2023343.0,1708758035.361
2021321.0,1708758035.401
2019465.0,1708758035.443
2018283.0,1708758035.481
2017477.0,1708758035.521
2016693.0,1708758035.562
2015748.0,1708758035.601
2015280.0,1708758035.642
2015078.0,1708758035.682
2015272.0,1708758035.721
2015383.0,1708758035.762
2016159.0,1708758035.803
2017394.0,1708758035.843
2017779.0,1708758035.882
2018797.0,1708758035.923
2019580.0,1708758035.962
2020832.0,1708758036.002
2021802.0,1708758036.044
2019818.0,1708758036.082
2015726.0,1708758036.123
2011123.0,1708758036.164
2007887.0,1708758036.203
2005574.0,1708758036.244
2001573.0,1708758036.363
2002325.0,1708758036.323
2003652.0,1708758036.284
1999129.0,1708758036.484
1998869.0,1708758036.525
1999736.0,1708758036.444
1999245.0,1708758036.564
1999533.0,1708758036.604
2000760.0,1708758036.404
2000995.0,1708758036.684
2002331.0,1708758036.724
2004618.0,1708758036.804
2000127.0,1708758036.646
2005678.0,1708758036.845
2006890.0,1708758036.886
2008325.0,1708758036.925
2009553.0,1708758036.965
2003266.0,1708758036.765
2008143.0,1708758037.006
2003810.0,1708758037.046
1999221.0,1708758037.085
1996511.0,1708758037.126
1994279.0,1708758037.165
1992383.0,1708758037.206
1991369.0,1708758037.247
1990594.0,1708758037.286
1989603.0,1708758037.326
1988454.0,1708758037.367
1987591.0,1708758037.406
1987542.0,1708758037.447
1987757.0,1708758037.487
1988189.0,1708758037.526
1989375.0,1708758037.567
1989827.0,1708758037.608
1991073.0,1708758037.647
1992784.0,1708758037.728
1991808.0,1708758037.687
1994169.0,1708758037.767
1994828.0,1708758037.807
1992002.0,1708758037.849
1987079.0,1708758037.887
1982743.0,1708758037.927
1979896.0,1708758037.969
1977420.0,1708758038.008
1975503.0,1708758038.048
1974561.0,1708758038.089
1973743.0,1708758038.128
1972570.0,1708758038.168
1971630.0,1708758038.209
1971215.0,1708758038.249
1970874.0,1708758038.288
1971309.0,1708758038.329
1972272.0,1708758038.369
1973086.0,1708758038.409
1973996.0,1708758038.451
1975295.0,1708758038.489
1976398.0,1708758038.529
1977413.0,1708758038.57
1978939.0,1708758038.609
1980341.0,1708758038.65
1978532.0,1708758038.69
1974123.0,1708758038.73
1969248.0,1708758038.77
1965808.0,1708758038.811
1963276.0,1708758038.851
1961120.0,1708758038.89
1959651.0,1708758038.931
1958793.0,1708758038.97
1958020.0,1708758039.01
1956984.0,1708758039.052
1956315.0,1708758039.09
1956232.0,1708758039.131
1956379.0,1708758039.172
1956690.0,1708758039.211
1957769.0,1708758039.252
1958666.0,1708758039.292
1959723.0,1708758039.331
1960856.0,1708758039.371
1962218.0,1708758039.413
1963683.0,1708758039.452
1965269.0,1708758039.491
1966861.0,1708758039.532
1966191.0,1708758039.571
1961980.0,1708758039.611
1956935.0,1708758039.653
1953225.0,1708758039.692
1950704.0,1708758039.732
1948560.0,1708758039.773
1946910.0,1708758039.812
1946091.0,1708758039.853
1945347.0,1708758039.893
1944254.0,1708758039.932
1943831.0,1708758039.972
1943199.0,1708758040.013
1943395.0,1708758040.053
1943985.0,1708758040.092
1944988.0,1708758040.133
1945602.0,1708758040.172
1946494.0,1708758040.212
1947490.0,1708758040.254
1948325.0,1708758040.292
1949714.0,1708758040.333
1950533.0,1708758040.374
1948393.0,1708758040.413
1943010.0,1708758040.454
1938353.0,1708758040.494
1935203.0,1708758040.533
1932837.0,1708758040.573
1930986.0,1708758040.614
1930232.0,1708758040.654
1929564.0,1708758040.693
1928590.0,1708758040.734
1927642.0,1708758040.773
1927531.0,1708758040.813
1927562.0,1708758040.855
1928041.0,1708758040.894
1928682.0,1708758040.934
1929578.0,1708758040.975
1930757.0,1708758041.014
1932107.0,1708758041.055
1933230.0,1708758041.095
1934611.0,1708758041.134
1936024.0,1708758041.174
1937610.0,1708758041.215
1936306.0,1708758041.255
1931414.0,1708758041.295
1925736.0,1708758041.336
1922013.0,1708758041.375
1918966.0,1708758041.415
1916280.0,1708758041.457
1914505.0,1708758041.495
1913626.0,1708758041.535
1912998.0,1708758041.576
1911715.0,1708758041.615
1910747.0,1708758041.656
1910605.0,1708758041.696
1910687.0,1708758041.735
1911410.0,1708758041.775
1912354.0,1708758041.817
1913800.0,1708758041.856
1915249.0,1708758041.896
1916363.0,1708758041.937
1917826.0,1708758041.976
1919471.0,1708758042.016
1921211.0,1708758042.058
1923058.0,1708758042.096
1925096.0,1708758042.136
1923058.0,1708758042.177
1918020.0,1708758042.216
1912903.0,1708758042.257
1909656.0,1708758042.298
1906904.0,1708758042.337
1904681.0,1708758042.377
1903412.0,1708758042.418
1902828.0,1708758042.458
1901971.0,1708758042.497
1901218.0,1708758042.538
1900802.0,1708758042.577
1900849.0,1708758042.617
1901414.0,1708758042.659
1902337.0,1708758042.697
1903512.0,1708758042.737
1904849.0,1708758042.778
1906544.0,1708758042.817
1907941.0,1708758042.858
1909544.0,1708758042.899
1911648.0,1708758042.938
1913378.0,1708758042.978
1915745.0,1708758043.019
1917325.0,1708758043.059
1914666.0,1708758043.098
1909401.0,1708758043.139
1905067.0,1708758043.178
1902184.0,1708758043.218
1900036.0,1708758043.26
1898431.0,1708758043.299
1897711.0,1708758043.339
1897237.0,1708758043.38
1896756.0,1708758043.417
1896237.0,1708758043.455
1896293.0,1708758043.496
1896658.0,1708758043.535
1897352.0,1708758043.575
1898365.0,1708758043.616
1899897.0,1708758043.656
1901379.0,1708758043.696
1902911.0,1708758043.737
1904472.0,1708758043.776
1908333.0,1708758043.856
1910179.0,1708758043.895
1906275.0,1708758043.815
1905089.0,1708758043.976
1909409.0,1708758043.935
1900127.0,1708758044.016
1897048.0,1708758044.057
1894713.0,1708758044.097
1891271.0,1708758044.175
1890208.0,1708758044.256
1889871.0,1708758044.295
1889549.0,1708758044.376
1890250.0,1708758044.416
1891260.0,1708758044.458
1889565.0,1708758044.337
1892697.0,1708758044.495
1890757.0,1708758044.216
1892403.0,1708758044.136
1894251.0,1708758044.535
1895908.0,1708758044.574
1897817.0,1708758044.613
1899606.0,1708758044.652
1903907.0,1708758044.73
1901410.0,1708758044.691
1906085.0,1708758044.769
1908487.0,1708758044.847
1904248.0,1708758044.886
1899446.0,1708758044.925
1908422.0,1708758044.808
1896212.0,1708758044.964
1893856.0,1708758045.003
1891385.0,1708758045.042
1890065.0,1708758045.081
1889787.0,1708758045.12
1889501.0,1708758045.159
1888812.0,1708758045.237
1888944.0,1708758045.198
1889037.0,1708758045.276
1889679.0,1708758045.315
1890925.0,1708758045.354
1892203.0,1708758045.393
1893905.0,1708758045.432
1895275.0,1708758045.471
1897116.0,1708758045.51
1898984.0,1708758045.549
1901046.0,1708758045.588
1903664.0,1708758045.627
1905871.0,1708758045.666
1908252.0,1708758045.705
1910939.0,1708758045.744
1911046.0,1708758045.783
1907566.0,1708758045.822
1903995.0,1708758045.861
1903083.0,1708758045.9
1903879.0,1708758045.94
1904143.0,1708758045.98
1904681.0,1708758046.02
1907240.0,1708758046.06
1908214.0,1708758046.1
1908315.0,1708758046.14
1908652.0,1708758046.18
1908990.0,1708758046.22
1909586.0,1708758046.26
