bvp,time
-1.79,1767084367.671875
0.05,1767084367.6875
2.09,1767084367.703125
4.13,1767084367.71875
5.88,1767084367.734375
7.07,1767084367.75
7.57,1767084367.765625
7.37,1767084367.78125
6.59,1767084367.796875
5.47,1767084367.8125
4.33,1767084367.828125
3.65,1767084367.84375
4.01,1767084367.859375
5.89,1767084367.875
9.52,1767084367.890625
14.68,1767084367.90625
20.63,1767084367.921875
26.42,1767084367.9375
31.15,1767084367.953125
34.32,1767084367.96875
35.91,1767084367.984375
36.34,1767084368.0
36.17,1767084368.015625
35.92,1767084368.03125
35.92,1767084368.046875
36.34,1767084368.0625
37.18,1767084368.078125
38.35,1767084368.09375
39.63,1767084368.109375
40.7,1767084368.125
41.27,1767084368.140625
41.26,1767084368.15625
40.93,1767084368.171875
40.89,1767084368.1875
41.82,1767084368.203125
44.05,1767084368.21875
47.22,1767084368.234375
50.1,1767084368.25
50.89,1767084368.265625
47.72,1767084368.28125
39.38,1767084368.296875
25.78,1767084368.3125
8.03,1767084368.328125
-11.94,1767084368.34375
-31.94,1767084368.359375
-50.16,1767084368.375
-65.51,1767084368.390625
-77.59,1767084368.40625
-86.4,1767084368.421875
-92.02,1767084368.4375
-94.34,1767084368.453125
-93.16,1767084368.46875
-88.45,1767084368.484375
-80.68,1767084368.5
-70.97,1767084368.515625
-60.96,1767084368.53125
-52.43,1767084368.546875
-46.71,1767084368.5625
-44.28,1767084368.578125
-44.65,1767084368.59375
-46.74,1767084368.609375
-49.43,1767084368.625
-51.98,1767084368.640625
-54.2,1767084368.65625
-56.17,1767084368.671875
-57.73,1767084368.6875
-58.21,1767084368.703125
-56.49,1767084368.71875
-51.46,1767084368.734375
-42.53,1767084368.75
-30.0,1767084368.765625
-14.94,1767084368.78125
1.37,1767084368.796875
18.02,1767084368.8125
34.89,1767084368.828125
52.67,1767084368.84375
72.43,1767084368.859375
95.02,1767084368.875
120.52,1767084368.890625
147.89,1767084368.90625
174.93,1767084368.921875
198.38,1767084368.9375
214.35,1767084368.953125
218.87,1767084368.96875
208.83,1767084368.984375
183.07,1767084369.0
143.21,1767084369.015625
93.83,1767084369.03125
41.57,1767084369.046875
-6.61,1767084369.0625
-45.47,1767084369.078125
-72.75,1767084369.09375
-89.24,1767084369.109375
-97.66,1767084369.125
-100.99,1767084369.140625
-101.28,1767084369.15625
-99.42,1767084369.171875
-95.74,1767084369.1875
-90.91,1767084369.203125
-86.23,1767084369.21875
-83.17,1767084369.234375
-82.55,1767084369.25
-83.85,1767084369.265625
-85.32,1767084369.28125
-84.81,1767084369.296875
-80.79,1767084369.3125
-73.13,1767084369.328125
-63.05,1767084369.34375
-52.47,1767084369.359375
-43.03,1767084369.375
-35.51,1767084369.390625
-29.7,1767084369.40625
-24.74,1767084369.421875
-19.77,1767084369.4375
-14.39,1767084369.453125
-8.84,1767084369.46875
-3.76,1767084369.484375
0.19,1767084369.5
2.69,1767084369.515625
3.94,1767084369.53125
4.52,1767084369.546875
5.2,1767084369.5625
6.62,1767084369.578125
9.03,1767084369.59375
12.28,1767084369.609375
15.88,1767084369.625
19.27,1767084369.640625
21.95,1767084369.65625
23.74,1767084369.671875
24.68,1767084369.6875
25.01,1767084369.703125
24.92,1767084369.71875
24.42,1767084369.734375
23.32,1767084369.75
21.35,1767084369.765625
18.27,1767084369.78125
14.07,1767084369.796875
8.99,1767084369.8125
3.47,1767084369.828125
-1.99,1767084369.84375
-6.94,1767084369.859375
-11.08,1767084369.875
-14.25,1767084369.890625
-16.55,1767084369.90625
-18.2,1767084369.921875
-19.65,1767084369.9375
-21.26,1767084369.953125
-23.22,1767084369.96875
-25.25,1767084369.984375
-26.67,1767084370.0
-26.48,1767084370.015625
-23.87,1767084370.03125
-18.53,1767084370.046875
-10.83,1767084370.0625
-1.71,1767084370.078125
7.7,1767084370.09375
16.52,1767084370.109375
24.23,1767084370.125
30.66,1767084370.140625
35.85,1767084370.15625
39.78,1767084370.171875
42.4,1767084370.1875
43.63,1767084370.203125
43.53,1767084370.21875
42.35,1767084370.234375
40.53,1767084370.25
38.53,1767084370.265625
36.7,1767084370.28125
35.12,1767084370.296875
33.51,1767084370.3125
31.41,1767084370.328125
28.29,1767084370.34375
23.94,1767084370.359375
18.65,1767084370.375
13.15,1767084370.390625
8.29,1767084370.40625
4.61,1767084370.421875
2.14,1767084370.4375
0.42,1767084370.453125
-1.14,1767084370.46875
-2.8,1767084370.484375
-4.35,1767084370.5
-5.24,1767084370.515625
-4.93,1767084370.53125
-3.4,1767084370.546875
-1.11,1767084370.5625
1.16,1767084370.578125
2.62,1767084370.59375
2.86,1767084370.609375
1.89,1767084370.625
0.02,1767084370.640625
-2.16,1767084370.65625
-4.02,1767084370.671875
-4.9,1767084370.6875
-4.38,1767084370.703125
-2.55,1767084370.71875
-0.11,1767084370.734375
1.64,1767084370.75
1.25,1767084370.765625
-2.28,1767084370.78125
-9.0,1767084370.796875
-17.99,1767084370.8125
-27.63,1767084370.828125
-36.37,1767084370.84375
-43.23,1767084370.859375
-48.08,1767084370.875
-51.36,1767084370.890625
-53.72,1767084370.90625
-55.56,1767084370.921875
-56.88,1767084370.9375
-57.42,1767084370.953125
-56.85,1767084370.96875
-54.96,1767084370.984375
-51.7,1767084371.0
-47.18,1767084371.015625
-41.6,1767084371.03125
-35.23,1767084371.046875
-28.4,1767084371.0625
-21.56,1767084371.078125
-15.26,1767084371.09375
-10.09,1767084371.109375
-6.51,1767084371.125
-4.76,1767084371.140625
-4.7,1767084371.15625
-5.86,1767084371.171875
-7.54,1767084371.1875
-9.04,1767084371.203125
-9.88,1767084371.21875
-10.0,1767084371.234375
-9.64,1767084371.25
-9.29,1767084371.265625
-9.44,1767084371.28125
-10.41,1767084371.296875
-12.3,1767084371.3125
-15.06,1767084371.328125
-18.58,1767084371.34375
-22.71,1767084371.359375
-27.21,1767084371.375
-31.67,1767084371.390625
-35.4,1767084371.40625
-37.57,1767084371.421875
-37.4,1767084371.4375
-34.43,1767084371.453125
-28.74,1767084371.46875
-20.99,1767084371.484375
-12.2,1767084371.5
-3.38,1767084371.515625
4.67,1767084371.53125
11.57,1767084371.546875
17.16,1767084371.5625
21.46,1767084371.578125
24.36,1767084371.59375
25.77,1767084371.609375
25.7,1767084371.625
24.46,1767084371.640625
22.7,1767084371.65625
21.21,1767084371.671875
20.66,1767084371.6875
21.3,1767084371.703125
22.92,1767084371.71875
24.98,1767084371.734375
26.94,1767084371.75
28.35,1767084371.765625
29.07,1767084371.78125
29.13,1767084371.796875
28.6,1767084371.8125
27.51,1767084371.828125
25.83,1767084371.84375
23.51,1767084371.859375
20.58,1767084371.875
17.17,1767084371.890625
13.44,1767084371.90625
9.58,1767084371.921875
5.71,1767084371.9375
1.87,1767084371.953125
-1.99,1767084371.96875
-6.0,1767084371.984375
-10.38,1767084372.0
-15.36,1767084372.015625
-21.04,1767084372.03125
-27.22,1767084372.046875
-33.29,1767084372.0625
-38.23,1767084372.078125
-40.9,1767084372.09375
-40.37,1767084372.109375
-36.34,1767084372.125
-29.24,1767084372.140625
-20.12,1767084372.15625
-10.29,1767084372.171875
-0.93,1767084372.1875
7.24,1767084372.203125
13.86,1767084372.21875
18.89,1767084372.234375
22.38,1767084372.25
24.4,1767084372.265625
25.08,1767084372.28125
24.65,1767084372.296875
23.47,1767084372.3125
21.96,1767084372.328125
20.54,1767084372.34375
19.46,1767084372.359375
18.79,1767084372.375
18.48,1767084372.390625
18.36,1767084372.40625
18.28,1767084372.421875
18.17,1767084372.4375
18.03,1767084372.453125
17.92,1767084372.46875
17.86,1767084372.484375
17.75,1767084372.5
17.32,1767084372.515625
16.26,1767084372.53125
14.32,1767084372.546875
11.58,1767084372.5625
8.35,1767084372.578125
5.09,1767084372.59375
2.18,1767084372.609375
-0.33,1767084372.625
-2.74,1767084372.640625
-5.59,1767084372.65625
-9.4,1767084372.671875
-14.51,1767084372.6875
-20.85,1767084372.703125
-27.97,1767084372.71875
-35.01,1767084372.734375
-40.86,1767084372.75
-44.36,1767084372.765625
-44.54,1767084372.78125
-41.02,1767084372.796875
-34.11,1767084372.8125
-24.83,1767084372.828125
-14.58,1767084372.84375
-4.81,1767084372.859375
3.43,1767084372.875
9.59,1767084372.890625
13.65,1767084372.90625
15.9,1767084372.921875
16.75,1767084372.9375
16.54,1767084372.953125
15.56,1767084372.96875
14.12,1767084372.984375
12.59,1767084373.0
11.46,1767084373.015625
11.19,1767084373.03125
12.07,1767084373.046875
14.1,1767084373.0625
16.89,1767084373.078125
19.82,1767084373.09375
22.22,1767084373.109375
23.55,1767084373.125
23.61,1767084373.140625
22.52,1767084373.15625
20.63,1767084373.171875
18.3,1767084373.1875
15.8,1767084373.203125
13.21,1767084373.21875
10.43,1767084373.234375
7.38,1767084373.25
4.02,1767084373.265625
0.42,1767084373.28125
-3.36,1767084373.296875
-7.38,1767084373.3125
-11.83,1767084373.328125
-16.91,1767084373.34375
-22.53,1767084373.359375
-28.05,1767084373.375
-32.3,1767084373.390625
-33.9,1767084373.40625
-31.81,1767084373.421875
-25.81,1767084373.4375
-16.72,1767084373.453125
-6.04,1767084373.46875
4.53,1767084373.484375
13.67,1767084373.5
20.76,1767084373.515625
25.8,1767084373.53125
29.11,1767084373.546875
31.02,1767084373.5625
31.69,1767084373.578125
31.25,1767084373.59375
29.86,1767084373.609375
27.89,1767084373.625
25.86,1767084373.640625
24.3,1767084373.65625
23.54,1767084373.671875
23.61,1767084373.6875
24.24,1767084373.703125
25.02,1767084373.71875
25.55,1767084373.734375
25.62,1767084373.75
25.24,1767084373.765625
24.56,1767084373.78125
23.75,1767084373.796875
22.86,1767084373.8125
21.75,1767084373.828125
20.21,1767084373.84375
18.06,1767084373.859375
15.33,1767084373.875
12.22,1767084373.890625
9.07,1767084373.90625
6.14,1767084373.921875
3.39,1767084373.9375
0.51,1767084373.953125
-2.9,1767084373.96875
-7.03,1767084373.984375
-11.5,1767084374.0
-15.46,1767084374.015625
-17.74,1767084374.03125
-17.34,1767084374.046875
-13.82,1767084374.0625
-7.44,1767084374.078125
0.98,1767084374.09375
10.32,1767084374.109375
19.56,1767084374.125
27.98,1767084374.140625
35.24,1767084374.15625
41.21,1767084374.171875
45.78,1767084374.1875
48.85,1767084374.203125
50.26,1767084374.21875
49.97,1767084374.234375
48.14,1767084374.25
45.2,1767084374.265625
41.73,1767084374.28125
38.32,1767084374.296875
35.39,1767084374.3125
33.08,1767084374.328125
31.28,1767084374.34375
29.71,1767084374.359375
28.15,1767084374.375
26.41,1767084374.390625
24.42,1767084374.40625
22.16,1767084374.421875
19.58,1767084374.4375
16.64,1767084374.453125
13.27,1767084374.46875
9.42,1767084374.484375
5.17,1767084374.5
0.64,1767084374.515625
-3.88,1767084374.53125
-8.06,1767084374.546875
-11.61,1767084374.5625
-14.4,1767084374.578125
-16.53,1767084374.59375
-18.4,1767084374.609375
-20.58,1767084374.625
-23.66,1767084374.640625
-27.95,1767084374.65625
-33.39,1767084374.671875
-39.43,1767084374.6875
-45.11,1767084374.703125
-49.31,1767084374.71875
-51.0,1767084374.734375
-49.57,1767084374.75
-45.01,1767084374.765625
-37.82,1767084374.78125
-28.9,1767084374.796875
-19.19,1767084374.8125
-9.47,1767084374.828125
-0.32,1767084374.84375
7.88,1767084374.859375
14.84,1767084374.875
20.26,1767084374.890625
23.91,1767084374.90625
25.74,1767084374.921875
25.94,1767084374.9375
24.97,1767084374.953125
23.42,1767084374.96875
21.83,1767084374.984375
20.57,1767084375.0
19.72,1767084375.015625
19.16,1767084375.03125
18.65,1767084375.046875
17.95,1767084375.0625
16.91,1767084375.078125
15.53,1767084375.09375
13.93,1767084375.109375
12.36,1767084375.125
11.05,1767084375.140625
10.14,1767084375.15625
9.5,1767084375.171875
8.86,1767084375.1875
7.81,1767084375.203125
6.05,1767084375.21875
3.55,1767084375.234375
0.56,1767084375.25
-2.4,1767084375.265625
-4.83,1767084375.28125
-6.44,1767084375.296875
-7.29,1767084375.3125
-7.81,1767084375.328125
-8.49,1767084375.34375
-9.78,1767084375.359375
-11.82,1767084375.375
-14.45,1767084375.390625
-17.32,1767084375.40625
-20.03,1767084375.421875
-22.33,1767084375.4375
-24.18,1767084375.453125
-25.88,1767084375.46875
-27.93,1767084375.484375
-30.94,1767084375.5
-35.46,1767084375.515625
-41.78,1767084375.53125
-49.74,1767084375.546875
-58.61,1767084375.5625
-67.16,1767084375.578125
-73.89,1767084375.59375
-77.46,1767084375.609375
-77.06,1767084375.625
-72.76,1767084375.640625
-65.41,1767084375.65625
-56.43,1767084375.671875
-47.21,1767084375.6875
-38.73,1767084375.703125
-31.3,1767084375.71875
-24.67,1767084375.734375
-18.38,1767084375.75
-12.1,1767084375.765625
-5.9,1767084375.78125
-0.13,1767084375.796875
4.91,1767084375.8125
9.18,1767084375.828125
13.14,1767084375.84375
17.48,1767084375.859375
22.91,1767084375.875
29.75,1767084375.890625
37.84,1767084375.90625
46.58,1767084375.921875
55.22,1767084375.9375
63.23,1767084375.953125
70.41,1767084375.96875
76.89,1767084375.984375
83.07,1767084376.0
89.43,1767084376.015625
96.34,1767084376.03125
104.07,1767084376.046875
112.61,1767084376.0625
121.65,1767084376.078125
130.42,1767084376.09375
137.8,1767084376.109375
142.51,1767084376.125
143.47,1767084376.140625
140.1,1767084376.15625
132.47,1767084376.171875
121.23,1767084376.1875
107.35,1767084376.203125
91.95,1767084376.21875
76.02,1767084376.234375
60.47,1767084376.25
46.06,1767084376.265625
33.44,1767084376.28125
23.06,1767084376.296875
15.16,1767084376.3125
9.8,1767084376.328125
6.78,1767084376.34375
5.75,1767084376.359375
6.1,1767084376.375
6.96,1767084376.390625
7.12,1767084376.40625
5.27,1767084376.421875
0.2,1767084376.4375
-8.81,1767084376.453125
-21.73,1767084376.46875
-37.79,1767084376.484375
-55.61,1767084376.5
-73.55,1767084376.515625
-90.07,1767084376.53125
-103.97,1767084376.546875
-114.57,1767084376.5625
-121.69,1767084376.578125
-125.55,1767084376.59375
-126.64,1767084376.609375
-125.56,1767084376.625
-122.87,1767084376.640625
-118.98,1767084376.65625
-114.13,1767084376.671875
-108.38,1767084376.6875
-101.64,1767084376.703125
-93.84,1767084376.71875
-85.02,1767084376.734375
-75.45,1767084376.75
-65.65,1767084376.765625
-56.29,1767084376.78125
-48.04,1767084376.796875
-41.32,1767084376.8125
-36.24,1767084376.828125
-32.5,1767084376.84375
-29.64,1767084376.859375
-27.19,1767084376.875
-24.87,1767084376.890625
-22.7,1767084376.90625
-20.93,1767084376.921875
-19.9,1767084376.9375
-19.83,1767084376.953125
-20.72,1767084376.96875
-22.27,1767084376.984375
-24.03,1767084377.0
-25.51,1767084377.015625
-26.38,1767084377.03125
-26.62,1767084377.046875
-26.45,1767084377.0625
-26.28,1767084377.078125
-26.51,1767084377.09375
-27.44,1767084377.109375
-29.12,1767084377.125
-31.39,1767084377.140625
-33.78,1767084377.15625
-35.64,1767084377.171875
-36.17,1767084377.1875
-34.63,1767084377.203125
-30.47,1767084377.21875
-23.63,1767084377.234375
-14.6,1767084377.25
-4.36,1767084377.265625
5.85,1767084377.28125
14.93,1767084377.296875
22.21,1767084377.3125
27.55,1767084377.328125
31.28,1767084377.34375
33.85,1767084377.359375
35.64,1767084377.375
36.76,1767084377.390625
37.19,1767084377.40625
36.86,1767084377.421875
35.84,1767084377.4375
34.36,1767084377.453125
32.68,1767084377.46875
30.99,1767084377.484375
29.3,1767084377.5
27.5,1767084377.515625
25.5,1767084377.53125
23.33,1767084377.546875
21.13,1767084377.5625
19.05,1767084377.578125
17.12,1767084377.59375
15.24,1767084377.609375
13.23,1767084377.625
10.96,1767084377.640625
8.48,1767084377.65625
5.94,1767084377.671875
3.55,1767084377.6875
1.39,1767084377.703125
-0.63,1767084377.71875
-2.68,1767084377.734375
-4.93,1767084377.75
-7.44,1767084377.765625
-10.1,1767084377.78125
-12.72,1767084377.796875
-15.16,1767084377.8125
-17.37,1767084377.828125
-19.51,1767084377.84375
-21.88,1767084377.859375
-24.82,1767084377.875
-28.64,1767084377.890625
-33.44,1767084377.90625
-38.95,1767084377.921875
-44.5,1767084377.9375
-49.06,1767084377.953125
-51.54,1767084377.96875
-51.06,1767084377.984375
-47.27,1767084378.0
-40.46,1767084378.015625
-31.42,1767084378.03125
-21.2,1767084378.046875
-10.77,1767084378.0625
-0.88,1767084378.078125
8.05,1767084378.09375
15.83,1767084378.109375
22.4,1767084378.125
27.72,1767084378.140625
31.75,1767084378.15625
34.48,1767084378.171875
35.97,1767084378.1875
36.44,1767084378.203125
36.28,1767084378.21875
36.03,1767084378.234375
36.18,1767084378.25
37.05,1767084378.265625
38.62,1767084378.28125
40.57,1767084378.296875
42.41,1767084378.3125
43.75,1767084378.328125
44.46,1767084378.34375
44.73,1767084378.359375
44.9,1767084378.375
45.24,1767084378.390625
45.71,1767084378.40625
45.98,1767084378.421875
45.57,1767084378.4375
44.15,1767084378.453125
41.73,1767084378.46875
38.74,1767084378.484375
35.81,1767084378.5
33.57,1767084378.515625
32.24,1767084378.53125
31.6,1767084378.546875
31.04,1767084378.5625
29.95,1767084378.578125
28.08,1767084378.59375
25.76,1767084378.609375
23.81,1767084378.625
23.16,1767084378.640625
24.32,1767084378.65625
27.15,1767084378.671875
30.84,1767084378.6875
34.34,1767084378.703125
36.82,1767084378.71875
37.99,1767084378.734375
38.15,1767084378.75
38.06,1767084378.765625
38.74,1767084378.78125
41.3,1767084378.796875
46.91,1767084378.8125
56.46,1767084378.828125
70.16,1767084378.84375
87.05,1767084378.859375
104.79,1767084378.875
120.12,1767084378.890625
129.84,1767084378.90625
132.14,1767084378.921875
127.47,1767084378.9375
118.51,1767084378.953125
109.05,1767084378.96875
102.3,1767084378.984375
99.41,1767084379.0
98.92,1767084379.015625
97.42,1767084379.03125
91.06,1767084379.046875
77.17,1767084379.0625
55.15,1767084379.078125
26.56,1767084379.09375
-5.76,1767084379.109375
-38.67,1767084379.125
-69.61,1767084379.140625
-96.84,1767084379.15625
-119.35,1767084379.171875
-136.65,1767084379.1875
-148.56,1767084379.203125
-155.25,1767084379.21875
-157.35,1767084379.234375
-155.93,1767084379.25
-152.32,1767084379.265625
-147.82,1767084379.28125
-143.37,1767084379.296875
-139.38,1767084379.3125
-135.65,1767084379.328125
-131.68,1767084379.34375
-127.0,1767084379.359375
-121.54,1767084379.375
-115.75,1767084379.390625
-110.43,1767084379.40625
-106.31,1767084379.421875
-103.54,1767084379.4375
-101.42,1767084379.453125
-98.55,1767084379.46875
-93.35,1767084379.484375
-84.81,1767084379.5
-72.88,1767084379.515625
-58.63,1767084379.53125
-43.73,1767084379.546875
-29.88,1767084379.5625
-18.23,1767084379.578125
-9.21,1767084379.59375
-2.62,1767084379.609375
1.98,1767084379.625
5.0,1767084379.640625
6.71,1767084379.65625
7.24,1767084379.671875
6.77,1767084379.6875
5.6,1767084379.703125
4.09,1767084379.71875
2.61,1767084379.734375
1.39,1767084379.75
0.53,1767084379.765625
-0.02,1767084379.78125
-0.36,1767084379.796875
-0.57,1767084379.8125
-0.69,1767084379.828125
-0.7,1767084379.84375
-0.52,1767084379.859375
-0.14,1767084379.875
0.43,1767084379.890625
1.02,1767084379.90625
1.38,1767084379.921875
1.2,1767084379.9375
0.29,1767084379.953125
-1.35,1767084379.96875
-3.47,1767084379.984375
-5.62,1767084380.0
-7.33,1767084380.015625
-8.32,1767084380.03125
-8.63,1767084380.046875
-8.68,1767084380.0625
-9.07,1767084380.078125
-10.44,1767084380.09375
-13.2,1767084380.109375
-17.4,1767084380.125
-22.65,1767084380.140625
-28.19,1767084380.15625
-32.97,1767084380.171875
-35.88,1767084380.1875
-36.04,1767084380.203125
-32.94,1767084380.21875
-26.7,1767084380.234375
-17.96,1767084380.25
-7.8,1767084380.265625
2.64,1767084380.28125
12.36,1767084380.296875
20.79,1767084380.3125
27.7,1767084380.328125
33.15,1767084380.34375
37.25,1767084380.359375
40.09,1767084380.375
41.74,1767084380.390625
42.31,1767084380.40625
42.05,1767084380.421875
41.36,1767084380.4375
40.65,1767084380.453125
40.28,1767084380.46875
40.37,1767084380.484375
40.79,1767084380.5
41.27,1767084380.515625
41.47,1767084380.53125
41.14,1767084380.546875
40.21,1767084380.5625
38.72,1767084380.578125
36.82,1767084380.59375
34.63,1767084380.609375
32.12,1767084380.625
29.25,1767084380.640625
25.85,1767084380.65625
21.87,1767084380.671875
17.35,1767084380.6875
12.51,1767084380.703125
7.65,1767084380.71875
3.09,1767084380.734375
-0.97,1767084380.75
-4.5,1767084380.765625
-7.61,1767084380.78125
-10.57,1767084380.796875
-13.66,1767084380.8125
-17.14,1767084380.828125
-21.19,1767084380.84375
-25.88,1767084380.859375
-31.14,1767084380.875
-36.63,1767084380.890625
-41.71,1767084380.90625
-45.55,1767084380.921875
-47.24,1767084380.9375
-46.08,1767084380.953125
-41.88,1767084380.96875
-35.0,1767084380.984375
-26.26,1767084381.0
-16.67,1767084381.015625
-7.11,1767084381.03125
1.87,1767084381.046875
10.03,1767084381.0625
17.24,1767084381.078125
23.35,1767084381.09375
28.14,1767084381.109375
31.41,1767084381.125
33.22,1767084381.140625
33.93,1767084381.15625
34.17,1767084381.171875
34.64,1767084381.1875
35.81,1767084381.203125
37.81,1767084381.21875
40.41,1767084381.234375
43.19,1767084381.25
45.74,1767084381.265625
47.82,1767084381.28125
49.33,1767084381.296875
50.32,1767084381.3125
50.92,1767084381.328125
51.28,1767084381.34375
51.55,1767084381.359375
51.82,1767084381.375
52.08,1767084381.390625
52.15,1767084381.40625
51.74,1767084381.421875
50.52,1767084381.4375
48.27,1767084381.453125
45.03,1767084381.46875
41.03,1767084381.484375
36.66,1767084381.5
32.21,1767084381.515625
27.79,1767084381.53125
23.33,1767084381.546875
18.68,1767084381.5625
13.67,1767084381.578125
8.22,1767084381.59375
2.33,1767084381.609375
-3.88,1767084381.625
-10.07,1767084381.640625
-15.61,1767084381.65625
-19.6,1767084381.671875
-21.03,1767084381.6875
-19.12,1767084381.703125
-13.66,1767084381.71875
-5.21,1767084381.734375
5.0,1767084381.75
15.34,1767084381.765625
24.31,1767084381.78125
30.79,1767084381.796875
34.29,1767084381.8125
34.87,1767084381.828125
32.96,1767084381.84375
29.19,1767084381.859375
24.2,1767084381.875
18.58,1767084381.890625
12.85,1767084381.90625
7.44,1767084381.921875
2.72,1767084381.9375
-1.05,1767084381.953125
-3.76,1767084381.96875
-5.54,1767084381.984375
-6.75,1767084382.0
-7.85,1767084382.015625
-9.23,1767084382.03125
-11.06,1767084382.046875
-13.23,1767084382.0625
-15.51,1767084382.078125
-17.7,1767084382.09375
-19.86,1767084382.109375
-22.25,1767084382.125
-25.12,1767084382.140625
-28.56,1767084382.15625
-32.32,1767084382.171875
-35.92,1767084382.1875
-38.86,1767084382.203125
-40.87,1767084382.21875
-42.09,1767084382.234375
-42.95,1767084382.25
-44.03,1767084382.265625
-45.82,1767084382.28125
-48.55,1767084382.296875
-52.03,1767084382.3125
-55.73,1767084382.328125
-58.81,1767084382.34375
-60.28,1767084382.359375
-59.32,1767084382.375
-55.45,1767084382.390625
-48.75,1767084382.40625
-39.84,1767084382.421875
-29.66,1767084382.4375
-19.22,1767084382.453125
-9.33,1767084382.46875
-0.52,1767084382.484375
6.93,1767084382.5
12.84,1767084382.515625
17.13,1767084382.53125
19.82,1767084382.546875
21.09,1767084382.5625
21.33,1767084382.578125
21.05,1767084382.59375
20.74,1767084382.609375
20.74,1767084382.625
21.17,1767084382.640625
21.97,1767084382.65625
22.96,1767084382.671875
23.99,1767084382.6875
24.97,1767084382.703125
25.8,1767084382.71875
26.42,1767084382.734375
26.7,1767084382.75
26.47,1767084382.765625
25.55,1767084382.78125
23.85,1767084382.796875
21.39,1767084382.8125
18.29,1767084382.828125
14.73,1767084382.84375
10.89,1767084382.859375
6.88,1767084382.875
2.73,1767084382.890625
-1.68,1767084382.90625
-6.49,1767084382.921875
-11.9,1767084382.9375
-18.06,1767084382.953125
-24.99,1767084382.96875
-32.46,1767084382.984375
-39.86,1767084383.0
-46.23,1767084383.015625
-50.39,1767084383.03125
-51.26,1767084383.046875
-48.31,1767084383.0625
-41.77,1767084383.078125
-32.62,1767084383.09375
-22.36,1767084383.109375
-12.44,1767084383.125
-3.92,1767084383.140625
2.84,1767084383.15625
8.01,1767084383.171875
12.01,1767084383.1875
15.19,1767084383.203125
17.68,1767084383.21875
19.39,1767084383.234375
20.26,1767084383.25
20.39,1767084383.265625
20.05,1767084383.28125
19.71,1767084383.296875
19.69,1767084383.3125
20.1,1767084383.328125
20.85,1767084383.34375
21.64,1767084383.359375
22.24,1767084383.375
22.52,1767084383.390625
22.6,1767084383.40625
22.59,1767084383.421875
22.63,1767084383.4375
22.65,1767084383.453125
22.38,1767084383.46875
21.49,1767084383.484375
19.74,1767084383.5
17.09,1767084383.515625
13.76,1767084383.53125
10.17,1767084383.546875
6.75,1767084383.5625
3.83,1767084383.578125
1.49,1767084383.59375
-0.48,1767084383.609375
-2.49,1767084383.625
-4.98,1767084383.640625
-8.28,1767084383.65625
-12.36,1767084383.671875
-16.71,1767084383.6875
-20.37,1767084383.703125
-22.13,1767084383.71875
-20.97,1767084383.734375
-16.38,1767084383.75
-8.66,1767084383.765625
0.99,1767084383.78125
10.9,1767084383.796875
19.24,1767084383.8125
24.61,1767084383.828125
26.38,1767084383.84375
24.85,1767084383.859375
21.16,1767084383.875
16.88,1767084383.890625
13.65,1767084383.90625
12.66,1767084383.921875
14.38,1767084383.9375
18.53,1767084383.953125
24.3,1767084383.96875
30.69,1767084383.984375
36.84,1767084384.0
42.18,1767084384.015625
46.41,1767084384.03125
49.38,1767084384.046875
51.02,1767084384.0625
51.3,1767084384.078125
50.2,1767084384.09375
47.82,1767084384.109375
44.26,1767084384.125
39.64,1767084384.140625
33.97,1767084384.15625
27.27,1767084384.171875
19.61,1767084384.1875
11.24,1767084384.203125
2.56,1767084384.21875
-5.93,1767084384.234375
-13.74,1767084384.25
-20.49,1767084384.265625
-25.96,1767084384.28125
-30.1,1767084384.296875
-33.11,1767084384.3125
-35.36,1767084384.328125
-37.39,1767084384.34375
-39.84,1767084384.359375
-43.22,1767084384.375
-47.74,1767084384.390625
-53.28,1767084384.40625
-59.29,1767084384.421875
-64.92,1767084384.4375
-69.17,1767084384.453125
-71.12,1767084384.46875
-70.13,1767084384.484375
-66.06,1767084384.5
-59.27,1767084384.515625
-50.62,1767084384.53125
-41.16,1767084384.546875
-31.82,1767084384.5625
-23.2,1767084384.578125
-15.42,1767084384.59375
-8.28,1767084384.609375
-1.53,1767084384.625
4.94,1767084384.640625
11.02,1767084384.65625
16.43,1767084384.671875
20.89,1767084384.6875
24.33,1767084384.703125
26.9,1767084384.71875
28.91,1767084384.734375
30.7,1767084384.75
32.35,1767084384.765625
33.79,1767084384.78125
34.74,1767084384.796875
34.93,1767084384.8125
34.26,1767084384.828125
32.78,1767084384.84375
30.63,1767084384.859375
27.92,1767084384.875
24.64,1767084384.890625
20.67,1767084384.90625
15.93,1767084384.921875
10.49,1767084384.9375
4.62,1767084384.953125
-1.37,1767084384.96875
-7.16,1767084384.984375
-12.65,1767084385.0
-18.0,1767084385.015625
-23.42,1767084385.03125
-29.13,1767084385.046875
-35.1,1767084385.0625
-41.09,1767084385.078125
-46.72,1767084385.09375
-51.65,1767084385.109375
-55.7,1767084385.125
-58.96,1767084385.140625
-61.7,1767084385.15625
-64.29,1767084385.171875
-67.08,1767084385.1875
-70.28,1767084385.203125
-73.86,1767084385.21875
-77.44,1767084385.234375
-80.32,1767084385.25
-81.52,1767084385.265625
-80.05,1767084385.28125
-75.22,1767084385.296875
-66.93,1767084385.3125
-55.79,1767084385.328125
-42.99,1767084385.34375
-29.94,1767084385.359375
-17.85,1767084385.375
-7.42,1767084385.390625
1.25,1767084385.40625
8.47,1767084385.421875
14.65,1767084385.4375
20.01,1767084385.453125
24.52,1767084385.46875
27.96,1767084385.484375
30.2,1767084385.5
31.33,1767084385.515625
31.77,1767084385.53125
32.1,1767084385.546875
32.85,1767084385.5625
34.21,1767084385.578125
36.0,1767084385.59375
37.75,1767084385.609375
39.0,1767084385.625
39.47,1767084385.640625
39.22,1767084385.65625
38.48,1767084385.671875
37.55,1767084385.6875
36.57,1767084385.703125
35.52,1767084385.71875
34.21,1767084385.734375
32.46,1767084385.75
30.14,1767084385.765625
27.21,1767084385.78125
23.75,1767084385.796875
19.9,1767084385.8125
15.87,1767084385.828125
11.91,1767084385.84375
8.18,1767084385.859375
4.8,1767084385.875
1.67,1767084385.890625
-1.41,1767084385.90625
-4.77,1767084385.921875
-8.72,1767084385.9375
-13.42,1767084385.953125
-18.8,1767084385.96875
-24.5,1767084385.984375
-29.85,1767084386.0
-33.92,1767084386.015625
-35.75,1767084386.03125
-34.55,1767084386.046875
-30.08,1767084386.0625
-22.73,1767084386.078125
-13.47,1767084386.09375
-3.56,1767084386.109375
5.86,1767084386.125
14.05,1767084386.140625
20.76,1767084386.15625
26.08,1767084386.171875
30.19,1767084386.1875
33.18,1767084386.203125
35.04,1767084386.21875
35.81,1767084386.234375
35.64,1767084386.25
34.91,1767084386.265625
34.1,1767084386.28125
33.67,1767084386.296875
33.85,1767084386.3125
34.62,1767084386.328125
35.79,1767084386.34375
37.03,1767084386.359375
38.03,1767084386.375
38.54,1767084386.390625
38.42,1767084386.40625
37.67,1767084386.421875
36.42,1767084386.4375
34.9,1767084386.453125
33.31,1767084386.46875
31.8,1767084386.484375
30.4,1767084386.5
28.98,1767084386.515625
27.35,1767084386.53125
25.37,1767084386.546875
23.04,1767084386.5625
20.52,1767084386.578125
18.06,1767084386.59375
15.91,1767084386.609375
14.18,1767084386.625
12.78,1767084386.640625
11.42,1767084386.65625
9.72,1767084386.671875
7.26,1767084386.6875
3.75,1767084386.703125
-0.9,1767084386.71875
-6.47,1767084386.734375
-12.44,1767084386.75
-18.0,1767084386.765625
-22.21,1767084386.78125
-24.13,1767084386.796875
-23.05,1767084386.8125
-18.7,1767084386.828125
-11.38,1767084386.84375
-1.91,1767084386.859375
8.51,1767084386.875
18.62,1767084386.890625
27.4,1767084386.90625
34.13,1767084386.921875
38.48,1767084386.9375
40.35,1767084386.953125
39.82,1767084386.96875
37.14,1767084386.984375
32.74,1767084387.0
27.35,1767084387.015625
21.78,1767084387.03125
16.81,1767084387.046875
12.91,1767084387.0625
10.06,1767084387.078125
7.84,1767084387.09375
5.68,1767084387.109375
3.18,1767084387.125
0.28,1767084387.140625
-2.78,1767084387.15625
-5.7,1767084387.171875
-8.33,1767084387.1875
-10.83,1767084387.203125
-13.58,1767084387.21875
-16.94,1767084387.234375
-21.07,1767084387.25
-25.75,1767084387.265625
-30.56,1767084387.28125
-35.03,1767084387.296875
-38.85,1767084387.3125
-42.04,1767084387.328125
-44.85,1767084387.34375
-47.7,1767084387.359375
-50.97,1767084387.375
-54.85,1767084387.390625
-59.27,1767084387.40625
-63.89,1767084387.421875
-68.08,1767084387.4375
-71.06,1767084387.453125
-71.99,1767084387.46875
-70.16,1767084387.484375
-65.22,1767084387.5
-57.29,1767084387.515625
-47.02,1767084387.53125
-35.4,1767084387.546875
-23.61,1767084387.5625
-12.63,1767084387.578125
-3.13,1767084387.59375
4.59,1767084387.609375
10.55,1767084387.625
14.91,1767084387.640625
17.8,1767084387.65625
19.42,1767084387.671875
19.99,1767084387.6875
19.87,1767084387.703125
19.56,1767084387.71875
19.53,1767084387.734375
20.13,1767084387.75
21.41,1767084387.765625
23.08,1767084387.78125
24.62,1767084387.796875
25.48,1767084387.8125
25.32,1767084387.828125
24.18,1767084387.84375
22.36,1767084387.859375
20.3,1767084387.875
18.27,1767084387.890625
16.23,1767084387.90625
13.89,1767084387.921875
10.92,1767084387.9375
7.21,1767084387.953125
3.0,1767084387.96875
-1.24,1767084387.984375
-5.05,1767084388.0
-8.26,1767084388.015625
-11.14,1767084388.03125
-14.26,1767084388.046875
-18.24,1767084388.0625
-23.41,1767084388.078125
-29.59,1767084388.09375
-36.02,1767084388.109375
-41.57,1767084388.125
-44.97,1767084388.140625
-45.26,1767084388.15625
-42.03,1767084388.171875
-35.58,1767084388.1875
-26.81,1767084388.203125
-16.94,1767084388.21875
-7.15,1767084388.234375
1.72,1767084388.25
9.25,1767084388.265625
15.34,1767084388.28125
20.02,1767084388.296875
23.35,1767084388.3125
25.35,1767084388.328125
26.11,1767084388.34375
25.85,1767084388.359375
24.94,1767084388.375
23.82,1767084388.390625
22.82,1767084388.40625
22.11,1767084388.421875
21.68,1767084388.4375
21.4,1767084388.453125
21.2,1767084388.46875
21.07,1767084388.484375
21.04,1767084388.5
21.12,1767084388.515625
21.14,1767084388.53125
20.83,1767084388.546875
19.85,1767084388.5625
17.98,1767084388.578125
15.15,1767084388.59375
11.62,1767084388.609375
7.79,1767084388.625
4.15,1767084388.640625
1.07,1767084388.65625
-1.34,1767084388.671875
-3.25,1767084388.6875
-5.09,1767084388.703125
-7.42,1767084388.71875
-10.7,1767084388.734375
-15.05,1767084388.75
-20.09,1767084388.765625
-24.95,1767084388.78125
-28.43,1767084388.796875
-29.26,1767084388.8125
-26.56,1767084388.828125
-19.99,1767084388.84375
-9.92,1767084388.859375
2.72,1767084388.875
16.69,1767084388.890625
30.76,1767084388.90625
43.86,1767084388.921875
55.27,1767084388.9375
64.5,1767084388.953125
71.27,1767084388.96875
75.42,1767084388.984375
76.96,1767084389.0
76.13,1767084389.015625
73.41,1767084389.03125
69.45,1767084389.046875
64.99,1767084389.0625
60.64,1767084389.078125
56.75,1767084389.09375
53.4,1767084389.109375
50.42,1767084389.125
47.53,1767084389.140625
44.38,1767084389.15625
40.64,1767084389.171875
36.07,1767084389.1875
30.48,1767084389.203125
23.82,1767084389.21875
16.21,1767084389.234375
7.99,1767084389.25
-0.35,1767084389.265625
-8.23,1767084389.28125
-15.12,1767084389.296875
-20.59,1767084389.3125
-24.5,1767084389.328125
-26.97,1767084389.34375
-28.45,1767084389.359375
-29.58,1767084389.375
-31.09,1767084389.390625
-33.6,1767084389.40625
-37.47,1767084389.421875
-42.63,1767084389.4375
-48.52,1767084389.453125
-54.16,1767084389.46875
-58.36,1767084389.484375
-60.05,1767084389.5
-58.6,1767084389.515625
-54.02,1767084389.53125
-46.92,1767084389.546875
-38.31,1767084389.5625
-29.33,1767084389.578125
-20.87,1767084389.59375
-13.44,1767084389.609375
-7.18,1767084389.625
-1.95,1767084389.640625
2.44,1767084389.65625
6.0,1767084389.671875
8.57,1767084389.6875
9.88,1767084389.703125
9.71,1767084389.71875
8.11,1767084389.734375
5.43,1767084389.75
2.23,1767084389.765625
-0.91,1767084389.78125
-3.58,1767084389.796875
-5.63,1767084389.8125
-7.16,1767084389.828125
-8.35,1767084389.84375
-9.35,1767084389.859375
-10.26,1767084389.875
-11.16,1767084389.890625
-12.13,1767084389.90625
-13.27,1767084389.921875
-14.67,1767084389.9375
-16.35,1767084389.953125
-18.32,1767084389.96875
-20.59,1767084389.984375
-23.15,1767084390.0
-25.95,1767084390.015625
-28.88,1767084390.03125
-31.74,1767084390.046875
-34.36,1767084390.0625
-36.65,1767084390.078125
-38.71,1767084390.09375
-40.75,1767084390.109375
-43.08,1767084390.125
-45.94,1767084390.140625
-49.41,1767084390.15625
-53.35,1767084390.171875
-57.32,1767084390.1875
-60.62,1767084390.203125
-62.35,1767084390.21875
-61.62,1767084390.234375
-57.79,1767084390.25
-50.77,1767084390.265625
-41.06,1767084390.28125
-29.72,1767084390.296875
-17.98,1767084390.3125
-6.98,1767084390.328125
2.53,1767084390.34375
10.26,1767084390.359375
16.24,1767084390.375
20.63,1767084390.390625
23.56,1767084390.40625
25.15,1767084390.421875
25.56,1767084390.4375
25.09,1767084390.453125
24.19,1767084390.46875
23.32,1767084390.484375
22.83,1767084390.5
22.81,1767084390.515625
23.16,1767084390.53125
23.66,1767084390.546875
24.11,1767084390.5625
24.45,1767084390.578125
24.67,1767084390.59375
24.78,1767084390.609375
24.67,1767084390.625
24.13,1767084390.640625
22.88,1767084390.65625
20.77,1767084390.671875
17.82,1767084390.6875
14.3,1767084390.703125
10.62,1767084390.71875
7.16,1767084390.734375
4.14,1767084390.75
1.53,1767084390.765625
-0.96,1767084390.78125
-3.77,1767084390.796875
-7.31,1767084390.8125
-11.83,1767084390.828125
-17.19,1767084390.84375
-22.87,1767084390.859375
-27.97,1767084390.875
-31.39,1767084390.890625
-32.19,1767084390.90625
-29.84,1767084390.921875
-24.47,1767084390.9375
-16.9,1767084390.953125
-8.29,1767084390.96875
0.16,1767084390.984375
7.6,1767084391.0
13.67,1767084391.015625
18.39,1767084391.03125
21.92,1767084391.046875
24.33,1767084391.0625
25.57,1767084391.078125
25.64,1767084391.09375
24.7,1767084391.109375
23.18,1767084391.125
21.68,1767084391.140625
20.76,1767084391.15625
20.72,1767084391.171875
21.55,1767084391.1875
22.99,1767084391.203125
24.69,1767084391.21875
26.38,1767084391.234375
27.9,1767084391.25
29.29,1767084391.265625
30.69,1767084391.28125
32.21,1767084391.296875
33.93,1767084391.3125
35.78,1767084391.328125
37.56,1767084391.34375
39.05,1767084391.359375
40.14,1767084391.375
40.89,1767084391.390625
41.55,1767084391.40625
42.43,1767084391.421875
43.72,1767084391.4375
45.41,1767084391.453125
47.17,1767084391.46875
48.54,1767084391.484375
49.04,1767084391.5
48.42,1767084391.515625
46.83,1767084391.53125
44.91,1767084391.546875
43.68,1767084391.5625
44.26,1767084391.578125
47.47,1767084391.59375
53.42,1767084391.609375
61.45,1767084391.625
70.22,1767084391.640625
78.33,1767084391.65625
84.81,1767084391.671875
89.5,1767084391.6875
93.04,1767084391.703125
96.47,1767084391.71875
100.78,1767084391.734375
106.35,1767084391.75
112.86,1767084391.765625
119.14,1767084391.78125
123.36,1767084391.796875
123.29,1767084391.8125
116.67,1767084391.828125
101.79,1767084391.84375
78.06,1767084391.859375
46.46,1767084391.875
9.56,1767084391.890625
-28.98,1767084391.90625
-65.31,1767084391.921875
-96.34,1767084391.9375
-120.38,1767084391.953125
-137.34,1767084391.96875
-148.29,1767084391.984375
-154.88,1767084392.0
-158.61,1767084392.015625
-160.46,1767084392.03125
-160.66,1767084392.046875
-158.99,1767084392.0625
-155.04,1767084392.078125
-148.62,1767084392.09375
-139.97,1767084392.109375
-129.83,1767084392.125
-119.3,1767084392.140625
-109.55,1767084392.15625
-101.5,1767084392.171875
-95.54,1767084392.1875
-91.46,1767084392.203125
-88.44,1767084392.21875
-85.37,1767084392.234375
-81.13,1767084392.25
-74.89,1767084392.265625
-66.41,1767084392.28125
-55.98,1767084392.296875
-44.37,1767084392.3125
-32.54,1767084392.328125
-21.41,1767084392.34375
-11.69,1767084392.359375
-3.84,1767084392.375
1.92,1767084392.390625
5.51,1767084392.40625
7.06,1767084392.421875
6.92,1767084392.4375
5.65,1767084392.453125
4.03,1767084392.46875
2.79,1767084392.484375
2.47,1767084392.5
3.13,1767084392.515625
4.44,1767084392.53125
5.84,1767084392.546875
6.8,1767084392.5625
7.09,1767084392.578125
6.81,1767084392.59375
6.24,1767084392.609375
5.66,1767084392.625
5.12,1767084392.640625
4.48,1767084392.65625
3.51,1767084392.671875
2.07,1767084392.6875
0.2,1767084392.703125
-1.92,1767084392.71875
-4.03,1767084392.734375
-5.87,1767084392.75
-7.35,1767084392.765625
-8.47,1767084392.78125
-9.35,1767084392.796875
-10.23,1767084392.8125
-11.44,1767084392.828125
-13.33,1767084392.84375
-16.22,1767084392.859375
-20.22,1767084392.875
-25.12,1767084392.890625
-30.37,1767084392.90625
-35.12,1767084392.921875
-38.37,1767084392.9375
-39.24,1767084392.953125
-37.21,1767084392.96875
-32.26,1767084392.984375
-24.89,1767084393.0
-16.01,1767084393.015625
-6.65,1767084393.03125
2.26,1767084393.046875
10.12,1767084393.0625
16.67,1767084393.078125
21.97,1767084393.09375
26.17,1767084393.109375
29.43,1767084393.125
31.83,1767084393.140625
33.37,1767084393.15625
34.09,1767084393.171875
34.11,1767084393.1875
33.7,1767084393.203125
33.17,1767084393.21875
32.79,1767084393.234375
32.66,1767084393.25
32.71,1767084393.265625
32.73,1767084393.28125
32.5,1767084393.296875
31.87,1767084393.3125
30.75,1767084393.328125
29.19,1767084393.34375
27.2,1767084393.359375
24.76,1767084393.375
21.79,1767084393.390625
18.2,1767084393.40625
13.96,1767084393.421875
9.14,1767084393.4375
4.02,1767084393.453125
-1.05,1767084393.46875
-5.61,1767084393.484375
-9.31,1767084393.5
-11.96,1767084393.515625
-13.64,1767084393.53125
-14.64,1767084393.546875
-15.36,1767084393.5625
-16.22,1767084393.578125
-17.5,1767084393.59375
-19.26,1767084393.609375
-21.35,1767084393.625
-23.33,1767084393.640625
-24.54,1767084393.65625
-24.25,1767084393.671875
-21.77,1767084393.6875
-16.8,1767084393.703125
-9.59,1767084393.71875
-0.97,1767084393.734375
7.87,1767084393.75
15.89,1767084393.765625
22.64,1767084393.78125
28.45,1767084393.796875
34.22,1767084393.8125
40.88,1767084393.828125
48.75,1767084393.84375
57.18,1767084393.859375
64.79,1767084393.875
69.97,1767084393.890625
71.61,1767084393.90625
69.61,1767084393.921875
64.91,1767084393.9375
59.15,1767084393.953125
54.09,1767084393.96875
51.22,1767084393.984375
51.5,1767084394.0
55.38,1767084394.015625
62.81,1767084394.03125
73.21,1767084394.046875
85.4,1767084394.0625
97.72,1767084394.078125
108.38,1767084394.09375
116.06,1767084394.109375
120.28,1767084394.125
121.23,1767084394.140625
119.14,1767084394.15625
113.62,1767084394.171875
103.39,1767084394.1875
86.73,1767084394.203125
62.53,1767084394.21875
31.26,1767084394.234375
-4.79,1767084394.25
-42.12,1767084394.265625
-77.37,1767084394.28125
-108.39,1767084394.296875
-134.62,1767084394.3125
-156.59,1767084394.328125
-174.8,1767084394.34375
-188.95,1767084394.359375
-197.83,1767084394.375
-200.01,1767084394.390625
-194.82,1767084394.40625
-182.99,1767084394.421875
-166.56,1767084394.4375
-148.22,1767084394.453125
-130.25,1767084394.46875
-113.84,1767084394.484375
-98.96,1767084394.5
-84.81,1767084394.515625
-70.65,1767084394.53125
-56.31,1767084394.546875
-42.32,1767084394.5625
-29.5,1767084394.578125
-18.5,1767084394.59375
-9.44,1767084394.609375
-1.93,1767084394.625
4.62,1767084394.640625
10.63,1767084394.65625
16.15,1767084394.671875
20.97,1767084394.6875
24.75,1767084394.703125
27.29,1767084394.71875
28.59,1767084394.734375
28.79,1767084394.75
28.13,1767084394.765625
26.86,1767084394.78125
25.24,1767084394.796875
23.49,1767084394.8125
21.76,1767084394.828125
20.12,1767084394.84375
18.46,1767084394.859375
16.52,1767084394.875
14.05,1767084394.890625
10.9,1767084394.90625
7.14,1767084394.921875
3.05,1767084394.9375
-1.0,1767084394.953125
-4.68,1767084394.96875
-7.84,1767084394.984375
-10.58,1767084395.0
-13.12,1767084395.015625
-15.75,1767084395.03125
-18.66,1767084395.046875
-21.96,1767084395.0625
-25.55,1767084395.078125
-29.16,1767084395.09375
-32.26,1767084395.109375
-34.11,1767084395.125
-33.93,1767084395.140625
-31.1,1767084395.15625
-25.41,1767084395.171875
-17.24,1767084395.1875
-7.45,1767084395.203125
2.87,1767084395.21875
12.78,1767084395.234375
21.73,1767084395.25
29.6,1767084395.265625
36.56,1767084395.28125
42.81,1767084395.296875
48.46,1767084395.3125
53.45,1767084395.328125
57.7,1767084395.34375
61.16,1767084395.359375
63.77,1767084395.375
65.47,1767084395.390625
66.15,1767084395.40625
65.67,1767084395.421875
63.99,1767084395.4375
61.17,1767084395.453125
57.42,1767084395.46875
52.91,1767084395.484375
47.77,1767084395.5
42.03,1767084395.515625
35.7,1767084395.53125
28.94,1767084395.546875
22.04,1767084395.5625
15.43,1767084395.578125
9.46,1767084395.59375
4.3,1767084395.609375
-0.24,1767084395.625
-4.53,1767084395.640625
-9.01,1767084395.65625
-13.95,1767084395.671875
-19.36,1767084395.6875
-25.02,1767084395.703125
-30.62,1767084395.71875
-35.87,1767084395.734375
-40.63,1767084395.75
-45.01,1767084395.765625
-49.21,1767084395.78125
-53.53,1767084395.796875
-58.15,1767084395.8125
-63.08,1767084395.828125
-68.07,1767084395.84375
-72.57,1767084395.859375
-75.84,1767084395.875
-77.12,1767084395.890625
-75.85,1767084395.90625
-71.84,1767084395.921875
-65.3,1767084395.9375
-56.85,1767084395.953125
-47.23,1767084395.96875
-37.2,1767084395.984375
-27.38,1767084396.0
-18.26,1767084396.015625
-10.17,1767084396.03125
-3.38,1767084396.046875
1.99,1767084396.0625
5.94,1767084396.078125
8.71,1767084396.09375
10.66,1767084396.109375
12.24,1767084396.125
13.83,1767084396.140625
15.59,1767084396.15625
17.53,1767084396.171875
19.55,1767084396.1875
21.55,1767084396.203125
23.54,1767084396.21875
25.59,1767084396.234375
27.73,1767084396.25
29.86,1767084396.265625
31.74,1767084396.28125
33.03,1767084396.296875
33.42,1767084396.3125
32.7,1767084396.328125
30.84,1767084396.34375
27.9,1767084396.359375
24.08,1767084396.375
19.68,1767084396.390625
15.18,1767084396.40625
11.15,1767084396.421875
8.07,1767084396.4375
6.16,1767084396.453125
5.17,1767084396.46875
4.5,1767084396.484375
3.36,1767084396.5
1.18,1767084396.515625
-2.09,1767084396.53125
-5.95,1767084396.546875
-9.46,1767084396.5625
-11.54,1767084396.578125
-11.34,1767084396.59375
-8.53,1767084396.609375
-3.33,1767084396.625
3.56,1767084396.640625
11.13,1767084396.65625
18.47,1767084396.671875
24.88,1767084396.6875
30.07,1767084396.703125
34.05,1767084396.71875
36.93,1767084396.734375
38.85,1767084396.75
39.89,1767084396.765625
40.06,1767084396.78125
39.49,1767084396.796875
38.38,1767084396.8125
37.03,1767084396.828125
35.66,1767084396.84375
34.34,1767084396.859375
32.98,1767084396.875
31.36,1767084396.890625
29.32,1767084396.90625
26.83,1767084396.921875
24.0,1767084396.9375
21.06,1767084396.953125
18.2,1767084396.96875
15.47,1767084396.984375
12.77,1767084397.0
9.91,1767084397.015625
6.69,1767084397.03125
3.02,1767084397.046875
-1.03,1767084397.0625
-5.21,1767084397.078125
-9.21,1767084397.09375
-12.78,1767084397.109375
-15.78,1767084397.125
-18.21,1767084397.140625
-20.28,1767084397.15625
-22.3,1767084397.171875
-24.68,1767084397.1875
-27.79,1767084397.203125
-31.84,1767084397.21875
-36.67,1767084397.234375
-41.77,1767084397.25
-46.27,1767084397.265625
-49.19,1767084397.28125
-49.75,1767084397.296875
-47.67,1767084397.3125
-43.26,1767084397.328125
-37.33,1767084397.34375
-30.94,1767084397.359375
-25.04,1767084397.375
-20.24,1767084397.390625
-16.68,1767084397.40625
-14.17,1767084397.421875
-12.41,1767084397.4375
-11.19,1767084397.453125
-10.47,1767084397.46875
-10.33,1767084397.484375
-10.91,1767084397.5
-12.2,1767084397.515625
-14.04,1767084397.53125
-16.14,1767084397.546875
-18.21,1767084397.5625
-20.06,1767084397.578125
-21.59,1767084397.59375
-22.77,1767084397.609375
-23.54,1767084397.625
-23.79,1767084397.640625
-23.37,1767084397.65625
-22.27,1767084397.671875
-20.66,1767084397.6875
-18.92,1767084397.703125
-17.58,1767084397.71875
-17.16,1767084397.734375
-17.93,1767084397.75
-19.87,1767084397.765625
-22.59,1767084397.78125
-25.48,1767084397.796875
-27.87,1767084397.8125
-29.32,1767084397.828125
-29.69,1767084397.84375
-29.25,1767084397.859375
-28.55,1767084397.875
-28.25,1767084397.890625
-28.89,1767084397.90625
-30.7,1767084397.921875
-33.51,1767084397.9375
-36.73,1767084397.953125
-39.43,1767084397.96875
-40.6,1767084397.984375
-39.36,1767084398.0
-35.39,1767084398.015625
-28.89,1767084398.03125
-20.67,1767084398.046875
-11.77,1767084398.0625
-3.18,1767084398.078125
4.49,1767084398.09375
11.03,1767084398.109375
16.53,1767084398.125
21.18,1767084398.140625
25.07,1767084398.15625
28.13,1767084398.171875
30.28,1767084398.1875
31.43,1767084398.203125
31.7,1767084398.21875
31.34,1767084398.234375
30.72,1767084398.25
30.2,1767084398.265625
30.03,1767084398.28125
30.25,1767084398.296875
30.72,1767084398.3125
31.15,1767084398.328125
31.23,1767084398.34375
30.79,1767084398.359375
29.83,1767084398.375
28.53,1767084398.390625
27.08,1767084398.40625
25.59,1767084398.421875
23.97,1767084398.4375
22.04,1767084398.453125
19.59,1767084398.46875
16.61,1767084398.484375
13.32,1767084398.5
10.08,1767084398.515625
7.25,1767084398.53125
4.99,1767084398.546875
3.24,1767084398.5625
1.79,1767084398.578125
0.39,1767084398.59375
-1.11,1767084398.609375
-2.84,1767084398.625
-4.91,1767084398.640625
-7.47,1767084398.65625
-10.58,1767084398.671875
-14.05,1767084398.6875
-17.41,1767084398.703125
-19.83,1767084398.71875
-20.45,1767084398.734375
-18.64,1767084398.75
-14.24,1767084398.765625
-7.59,1767084398.78125
0.48,1767084398.796875
9.01,1767084398.8125
17.17,1767084398.828125
24.39,1767084398.84375
30.49,1767084398.859375
35.56,1767084398.875
39.79,1767084398.890625
43.24,1767084398.90625
45.83,1767084398.921875
47.34,1767084398.9375
47.64,1767084398.953125
46.87,1767084398.96875
45.42,1767084398.984375
43.87,1767084399.0
42.61,1767084399.015625
41.74,1767084399.03125
40.95,1767084399.046875
39.8,1767084399.0625
37.96,1767084399.078125
35.34,1767084399.09375
32.22,1767084399.109375
28.98,1767084399.125
26.01,1767084399.140625
23.48,1767084399.15625
21.32,1767084399.171875
19.25,1767084399.1875
16.82,1767084399.203125
13.58,1767084399.21875
9.24,1767084399.234375
3.75,1767084399.25
-2.55,1767084399.265625
-9.07,1767084399.28125
-15.24,1767084399.296875
-20.72,1767084399.3125
-25.57,1767084399.328125
-30.15,1767084399.34375
-34.92,1767084399.359375
-40.17,1767084399.375
-45.85,1767084399.390625
-51.6,1767084399.40625
-56.89,1767084399.421875
-61.13,1767084399.4375
-63.76,1767084399.453125
-64.3,1767084399.46875
-62.42,1767084399.484375
-58.04,1767084399.5
-51.53,1767084399.515625
-43.6,1767084399.53125
-35.3,1767084399.546875
-27.64,1767084399.5625
-21.35,1767084399.578125
-16.69,1767084399.59375
-13.5,1767084399.609375
-11.44,1767084399.625
-10.17,1767084399.640625
-9.46,1767084399.65625
-9.19,1767084399.671875
-9.16,1767084399.6875
-9.15,1767084399.703125
-8.85,1767084399.71875
-8.02,1767084399.734375
-6.59,1767084399.75
-4.71,1767084399.765625
-2.66,1767084399.78125
-0.67,1767084399.796875
1.13,1767084399.8125
2.72,1767084399.828125
4.14,1767084399.84375
5.4,1767084399.859375
6.4,1767084399.875
6.99,1767084399.890625
7.03,1767084399.90625
6.52,1767084399.921875
5.58,1767084399.9375
4.42,1767084399.953125
3.26,1767084399.96875
2.23,1767084399.984375
1.33,1767084400.0
0.39,1767084400.015625
-0.8,1767084400.03125
-2.5,1767084400.046875
-4.88,1767084400.0625
-7.96,1767084400.078125
-11.42,1767084400.09375
-14.67,1767084400.109375
-16.78,1767084400.125
-16.85,1767084400.140625
-14.24,1767084400.15625
-8.91,1767084400.171875
-1.45,1767084400.1875
7.09,1767084400.203125
15.6,1767084400.21875
23.28,1767084400.234375
29.77,1767084400.25
35.07,1767084400.265625
39.32,1767084400.28125
42.58,1767084400.296875
44.78,1767084400.3125
45.83,1767084400.328125
45.8,1767084400.34375
44.97,1767084400.359375
43.81,1767084400.375
42.75,1767084400.390625
42.02,1767084400.40625
41.54,1767084400.421875
41.03,1767084400.4375
40.18,1767084400.453125
38.77,1767084400.46875
36.86,1767084400.484375
34.63,1767084400.5
32.22,1767084400.515625
29.65,1767084400.53125
26.72,1767084400.546875
23.21,1767084400.5625
18.98,1767084400.578125
14.14,1767084400.59375
8.95,1767084400.609375
3.74,1767084400.625
-1.37,1767084400.640625
-6.46,1767084400.65625
-11.79,1767084400.671875
-17.61,1767084400.6875
-24.01,1767084400.703125
-30.84,1767084400.71875
-37.77,1767084400.734375
-44.32,1767084400.75
-49.97,1767084400.765625
-54.09,1767084400.78125
-56.02,1767084400.796875
-55.19,1767084400.8125
-51.25,1767084400.828125
-44.31,1767084400.84375
-35.0,1767084400.859375
-24.41,1767084400.875
-13.84,1767084400.890625
-4.45,1767084400.90625
2.94,1767084400.921875
8.04,1767084400.9375
11.01,1767084400.953125
12.26,1767084400.96875
12.26,1767084400.984375
11.35,1767084401.0
9.77,1767084401.015625
7.7,1767084401.03125
5.34,1767084401.046875
3.05,1767084401.0625
1.19,1767084401.078125
0.1,1767084401.09375
-0.14,1767084401.109375
0.4,1767084401.125
1.49,1767084401.140625
2.93,1767084401.15625
4.56,1767084401.171875
6.27,1767084401.1875
7.95,1767084401.203125
9.35,1767084401.21875
10.2,1767084401.234375
10.32,1767084401.25
9.73,1767084401.265625
8.72,1767084401.28125
7.68,1767084401.296875
6.9,1767084401.3125
6.44,1767084401.328125
6.12,1767084401.34375
5.64,1767084401.359375
4.86,1767084401.375
3.91,1767084401.390625
3.13,1767084401.40625
2.87,1767084401.421875
3.35,1767084401.4375
4.63,1767084401.453125
6.62,1767084401.46875
9.27,1767084401.484375
12.64,1767084401.5
16.77,1767084401.515625
21.64,1767084401.53125
26.97,1767084401.546875
32.36,1767084401.5625
37.35,1767084401.578125
41.59,1767084401.59375
44.86,1767084401.609375
46.99,1767084401.625
47.84,1767084401.640625
47.29,1767084401.65625
45.4,1767084401.671875
42.54,1767084401.6875
39.46,1767084401.703125
37.19,1767084401.71875
36.65,1767084401.734375
38.39,1767084401.75
42.34,1767084401.765625
47.86,1767084401.78125
53.99,1767084401.796875
59.86,1767084401.8125
65.07,1767084401.828125
69.89,1767084401.84375
75.14,1767084401.859375
81.79,1767084401.875
90.34,1767084401.890625
100.21,1767084401.90625
109.51,1767084401.921875
115.31,1767084401.9375
114.51,1767084401.953125
104.93,1767084401.96875
86.16,1767084401.984375
59.81,1767084402.0
29.05,1767084402.015625
-2.47,1767084402.03125
-31.59,1767084402.046875
-56.37,1767084402.0625
-76.16,1767084402.078125
-91.25,1767084402.09375
-102.32,1767084402.109375
-110.08,1767084402.125
-115.22,1767084402.140625
-118.48,1767084402.15625
-120.68,1767084402.171875
-122.53,1767084402.1875
-124.33,1767084402.203125
-125.64,1767084402.21875
-125.37,1767084402.234375
-122.15,1767084402.25
-115.02,1767084402.265625
-103.94,1767084402.28125
-89.93,1767084402.296875
-74.78,1767084402.3125
-60.32,1767084402.328125
-47.77,1767084402.34375
-37.47,1767084402.359375
-28.95,1767084402.375
-21.47,1767084402.390625
-14.42,1767084402.40625
-7.63,1767084402.421875
-1.29,1767084402.4375
4.27,1767084402.453125
8.76,1767084402.46875
12.08,1767084402.484375
14.24,1767084402.5
15.29,1767084402.515625
15.3,1767084402.53125
14.33,1767084402.546875
12.55,1767084402.5625
10.24,1767084402.578125
7.72,1767084402.59375
5.35,1767084402.609375
3.36,1767084402.625
1.88,1767084402.640625
0.84,1767084402.65625
0.03,1767084402.671875
-0.87,1767084402.6875
-2.2,1767084402.703125
-4.19,1767084402.71875
-6.89,1767084402.734375
-10.05,1767084402.75
-13.25,1767084402.765625
-16.01,1767084402.78125
-18.07,1767084402.796875
-19.45,1767084402.8125
-20.62,1767084402.828125
-22.23,1767084402.84375
-24.97,1767084402.859375
-29.26,1767084402.875
-35.0,1767084402.890625
-41.59,1767084402.90625
-47.97,1767084402.921875
-52.98,1767084402.9375
-55.66,1767084402.953125
-55.58,1767084402.96875
-52.95,1767084402.984375
-48.49,1767084403.0
-43.24,1767084403.015625
-38.19,1767084403.03125
-34.06,1767084403.046875
-31.13,1767084403.0625
-29.32,1767084403.078125
-28.34,1767084403.09375
-27.9,1767084403.109375
-27.81,1767084403.125
-28.03,1767084403.140625
-28.61,1767084403.15625
-29.51,1767084403.171875
-30.5,1767084403.1875
-31.17,1767084403.203125
-31.07,1767084403.21875
-29.85,1767084403.234375
-27.51,1767084403.25
-24.34,1767084403.265625
-20.87,1767084403.28125
-17.62,1767084403.296875
-14.94,1767084403.3125
-12.9,1767084403.328125
-11.38,1767084403.34375
-10.15,1767084403.359375
-9.06,1767084403.375
-8.04,1767084403.390625
-7.14,1767084403.40625
-6.43,1767084403.421875
-6.02,1767084403.4375
-5.96,1767084403.453125
-6.29,1767084403.46875
-6.98,1767084403.484375
-7.96,1767084403.5
-9.06,1767084403.515625
-10.0,1767084403.53125
-10.39,1767084403.546875
-9.72,1767084403.5625
-7.54,1767084403.578125
-3.57,1767084403.59375
2.12,1767084403.609375
9.09,1767084403.625
16.62,1767084403.640625
23.95,1767084403.65625
30.42,1767084403.671875
35.62,1767084403.6875
39.39,1767084403.703125
41.7,1767084403.71875
42.64,1767084403.734375
42.35,1767084403.75
41.04,1767084403.765625
39.05,1767084403.78125
36.75,1767084403.796875
34.51,1767084403.8125
32.62,1767084403.828125
31.2,1767084403.84375
30.25,1767084403.859375
29.6,1767084403.875
29.05,1767084403.890625
28.34,1767084403.90625
27.28,1767084403.921875
25.8,1767084403.9375
23.94,1767084403.953125
21.85,1767084403.96875
19.7,1767084403.984375
17.56,1767084404.0
15.42,1767084404.015625
13.19,1767084404.03125
10.69,1767084404.046875
7.75,1767084404.0625
4.24,1767084404.078125
0.14,1767084404.09375
-4.29,1767084404.109375
-8.46,1767084404.125
-11.51,1767084404.140625
-12.45,1767084404.15625
-10.56,1767084404.171875
-5.63,1767084404.1875
1.84,1767084404.203125
10.83,1767084404.21875
20.05,1767084404.234375
28.4,1767084404.25
35.26,1767084404.265625
40.65,1767084404.28125
45.01,1767084404.296875
49.01,1767084404.3125
53.23,1767084404.328125
57.86,1767084404.34375
62.68,1767084404.359375
67.07,1767084404.375
70.28,1767084404.390625
71.71,1767084404.40625
71.21,1767084404.421875
69.07,1767084404.4375
65.94,1767084404.453125
62.57,1767084404.46875
59.47,1767084404.484375
56.79,1767084404.5
54.28,1767084404.515625
51.56,1767084404.53125
48.37,1767084404.546875
44.88,1767084404.5625
41.93,1767084404.578125
40.96,1767084404.59375
43.83,1767084404.609375
52.2,1767084404.625
66.87,1767084404.640625
86.96,1767084404.65625
109.57,1767084404.671875
129.93,1767084404.6875
142.4,1767084404.703125
142.05,1767084404.71875
126.35,1767084404.734375
96.17,1767084404.75
55.69,1767084404.765625
11.2,1767084404.78125
-30.97,1767084404.796875
-66.16,1767084404.8125
-92.32,1767084404.828125
-109.7,1767084404.84375
-119.94,1767084404.859375
-124.86,1767084404.875
-125.85,1767084404.890625
-123.94,1767084404.90625
-120.09,1767084404.921875
-115.52,1767084404.9375
-111.54,1767084404.953125
-109.03,1767084404.96875
-108.07,1767084404.984375
-107.77,1767084405.0
-106.74,1767084405.015625
-103.68,1767084405.03125
-98.03,1767084405.046875
-90.22,1767084405.0625
-81.39,1767084405.078125
-73.03,1767084405.09375
-66.27,1767084405.109375
-61.59,1767084405.125
-58.62,1767084405.140625
-56.47,1767084405.15625
-54.11,1767084405.171875
-50.9,1767084405.1875
-46.9,1767084405.203125
-42.82,1767084405.21875
-39.68,1767084405.234375
-38.24,1767084405.25
-38.62,1767084405.265625
-40.2,1767084405.28125
-41.93,1767084405.296875
-42.86,1767084405.3125
-42.64,1767084405.328125
-41.61,1767084405.34375
-40.61,1767084405.359375
-40.5,1767084405.375
-41.72,1767084405.390625
-44.18,1767084405.40625
-47.35,1767084405.421875
-50.43,1767084405.4375
-52.61,1767084405.453125
-53.09,1767084405.46875
-51.19,1767084405.484375
-46.34,1767084405.5
-38.27,1767084405.515625
-27.22,1767084405.53125
-13.95,1767084405.546875
0.32,1767084405.5625
14.29,1767084405.578125
26.88,1767084405.59375
37.54,1767084405.609375
46.2,1767084405.625
53.15,1767084405.640625
58.67,1767084405.65625
62.86,1767084405.671875
65.57,1767084405.6875
66.54,1767084405.703125
65.68,1767084405.71875
63.24,1767084405.734375
59.79,1767084405.75
56.06,1767084405.765625
52.69,1767084405.78125
49.96,1767084405.796875
47.84,1767084405.8125
46.03,1767084405.828125
44.2,1767084405.84375
42.13,1767084405.859375
39.79,1767084405.875
37.24,1767084405.890625
34.58,1767084405.90625
31.86,1767084405.921875
29.04,1767084405.9375
26.06,1767084405.953125
22.9,1767084405.96875
19.55,1767084405.984375
16.05,1767084406.0
12.44,1767084406.015625
8.72,1767084406.03125
4.86,1767084406.046875
0.79,1767084406.0625
-3.48,1767084406.078125
-7.96,1767084406.09375
-12.54,1767084406.109375
-17.14,1767084406.125
-21.73,1767084406.140625
-26.4,1767084406.15625
-31.39,1767084406.171875
-36.96,1767084406.1875
-43.22,1767084406.203125
-49.92,1767084406.21875
-56.32,1767084406.234375
-61.28,1767084406.25
-63.6,1767084406.265625
-62.38,1767084406.28125
-57.46,1767084406.296875
-49.47,1767084406.3125
-39.68,1767084406.328125
-29.59,1767084406.34375
-20.37,1767084406.359375
-12.66,1767084406.375
-6.53,1767084406.390625
-1.75,1767084406.40625
1.92,1767084406.421875
4.6,1767084406.4375
6.29,1767084406.453125
7.03,1767084406.46875
6.98,1767084406.484375
6.48,1767084406.5
5.94,1767084406.515625
5.71,1767084406.53125
6.0,1767084406.546875
6.81,1767084406.5625
8.03,1767084406.578125
9.44,1767084406.59375
10.83,1767084406.609375
12.07,1767084406.625
13.12,1767084406.640625
14.02,1767084406.65625
14.87,1767084406.671875
15.71,1767084406.6875
16.49,1767084406.703125
17.06,1767084406.71875
17.27,1767084406.734375
17.09,1767084406.75
16.66,1767084406.765625
16.23,1767084406.78125
16.05,1767084406.796875
16.17,1767084406.8125
16.45,1767084406.828125
16.6,1767084406.84375
16.35,1767084406.859375
15.56,1767084406.875
14.27,1767084406.890625
12.59,1767084406.90625
10.55,1767084406.921875
8.06,1767084406.9375
5.0,1767084406.953125
1.43,1767084406.96875
-2.12,1767084406.984375
-4.73,1767084407.0
-5.25,1767084407.015625
-2.72,1767084407.03125
3.17,1767084407.046875
11.91,1767084407.0625
22.32,1767084407.078125
33.0,1767084407.09375
42.72,1767084407.109375
50.84,1767084407.125
57.29,1767084407.140625
62.33,1767084407.15625
66.24,1767084407.171875
69.09,1767084407.1875
70.76,1767084407.203125
71.12,1767084407.21875
70.25,1767084407.234375
68.57,1767084407.25
66.68,1767084407.265625
65.17,1767084407.28125
64.3,1767084407.296875
63.93,1767084407.3125
63.65,1767084407.328125
62.92,1767084407.34375
61.4,1767084407.359375
59.05,1767084407.375
56.04,1767084407.390625
52.66,1767084407.40625
49.13,1767084407.421875
45.51,1767084407.4375
41.71,1767084407.453125
37.53,1767084407.46875
32.8,1767084407.484375
27.48,1767084407.5
21.65,1767084407.515625
15.59,1767084407.53125
9.64,1767084407.546875
4.04,1767084407.5625
-1.19,1767084407.578125
-6.32,1767084407.59375
-11.79,1767084407.609375
-18.04,1767084407.625
-25.32,1767084407.640625
-33.58,1767084407.65625
-42.53,1767084407.671875
-51.65,1767084407.6875
-60.26,1767084407.703125
-67.57,1767084407.71875
-72.68,1767084407.734375
-74.78,1767084407.75
-73.32,1767084407.765625
-68.27,1767084407.78125
-60.21,1767084407.796875
-50.26,1767084407.8125
-39.72,1767084407.828125
-29.81,1767084407.84375
-21.41,1767084407.859375
-14.97,1767084407.875
-10.63,1767084407.890625
-8.27,1767084407.90625
-7.63,1767084407.921875
-8.33,1767084407.9375
-9.89,1767084407.953125
-11.84,1767084407.96875
-13.75,1767084407.984375
-15.37,1767084408.0
-16.62,1767084408.015625
-17.58,1767084408.03125
-18.4,1767084408.046875
-19.15,1767084408.0625
-19.85,1767084408.078125
-20.41,1767084408.09375
-20.78,1767084408.109375
-21.0,1767084408.125
-21.26,1767084408.140625
-21.79,1767084408.15625
-22.84,1767084408.171875
-24.5,1767084408.1875
-26.66,1767084408.203125
-29.06,1767084408.21875
-31.36,1767084408.234375
-33.25,1767084408.25
-34.63,1767084408.265625
-35.56,1767084408.28125
-36.3,1767084408.296875
-37.22,1767084408.3125
-38.62,1767084408.328125
-40.71,1767084408.34375
-43.43,1767084408.359375
-46.38,1767084408.375
-48.86,1767084408.390625
-49.94,1767084408.40625
-48.73,1767084408.421875
-44.63,1767084408.4375
-37.57,1767084408.453125
-28.07,1767084408.46875
-17.13,1767084408.484375
-5.95,1767084408.5
4.42,1767084408.515625
13.23,1767084408.53125
20.16,1767084408.546875
25.15,1767084408.5625
28.29,1767084408.578125
29.65,1767084408.59375
29.37,1767084408.609375
27.74,1767084408.625
25.26,1767084408.640625
22.61,1767084408.65625
20.49,1767084408.671875
19.33,1767084408.6875
19.15,1767084408.703125
19.64,1767084408.71875
20.27,1767084408.734375
20.61,1767084408.75
20.45,1767084408.765625
19.82,1767084408.78125
18.84,1767084408.796875
17.6,1767084408.8125
16.05,1767084408.828125
14.03,1767084408.84375
11.39,1767084408.859375
8.04,1767084408.875
3.95,1767084408.890625
-0.88,1767084408.90625
-6.43,1767084408.921875
-12.67,1767084408.9375
-19.47,1767084408.953125
-26.54,1767084408.96875
-33.31,1767084408.984375
-39.0,1767084409.0
-42.71,1767084409.015625
-43.61,1767084409.03125
-41.2,1767084409.046875
-35.49,1767084409.0625
-27.08,1767084409.078125
-17.03,1767084409.09375
-6.55,1767084409.109375
3.3,1767084409.125
11.88,1767084409.140625
19.0,1767084409.15625
24.78,1767084409.171875
29.4,1767084409.1875
32.94,1767084409.203125
35.37,1767084409.21875
36.73,1767084409.234375
37.17,1767084409.25
37.13,1767084409.265625
37.14,1767084409.28125
37.66,1767084409.296875
38.89,1767084409.3125
40.79,1767084409.328125
43.06,1767084409.34375
45.35,1767084409.359375
47.26,1767084409.375
48.46,1767084409.390625
48.67,1767084409.40625
47.72,1767084409.421875
45.58,1767084409.4375
42.37,1767084409.453125
38.22,1767084409.46875
33.26,1767084409.484375
27.52,1767084409.5
21.0,1767084409.515625
13.73,1767084409.53125
5.83,1767084409.546875
-2.41,1767084409.5625
-10.65,1767084409.578125
-18.39,1767084409.59375
-25.06,1767084409.609375
-29.94,1767084409.625
-32.26,1767084409.640625
-31.35,1767084409.65625
-26.9,1767084409.671875
-19.17,1767084409.6875
-9.04,1767084409.703125
2.19,1767084409.71875
13.18,1767084409.734375
22.88,1767084409.75
30.75,1767084409.765625
36.66,1767084409.78125
40.74,1767084409.796875
43.07,1767084409.8125
43.7,1767084409.828125
42.63,1767084409.84375
40.0,1767084409.859375
36.14,1767084409.875
31.62,1767084409.890625
27.03,1767084409.90625
22.88,1767084409.921875
19.42,1767084409.9375
16.63,1767084409.953125
14.36,1767084409.96875
12.38,1767084409.984375
10.54,1767084410.0
8.74,1767084410.015625
6.94,1767084410.03125
5.0,1767084410.046875
2.76,1767084410.0625
0.08,1767084410.078125
-3.14,1767084410.09375
-6.78,1767084410.109375
-10.64,1767084410.125
-14.45,1767084410.140625
-18.09,1767084410.15625
-21.68,1767084410.171875
-25.61,1767084410.1875
-30.38,1767084410.203125
-36.39,1767084410.21875
-43.65,1767084410.234375
-51.64,1767084410.25
-59.29,1767084410.265625
-65.22,1767084410.28125
-68.09,1767084410.296875
-67.04,1767084410.3125
-61.94,1767084410.328125
-53.47,1767084410.34375
-42.87,1767084410.359375
-31.61,1767084410.375
-20.96,1767084410.390625
-11.75,1767084410.40625
-4.34,1767084410.421875
1.26,1767084410.4375
5.19,1767084410.453125
7.55,1767084410.46875
8.46,1767084410.484375
8.05,1767084410.5
6.64,1767084410.515625
4.73,1767084410.53125
2.95,1767084410.546875
1.92,1767084410.5625
1.98,1767084410.578125
3.12,1767084410.59375
4.93,1767084410.609375
6.78,1767084410.625
8.05,1767084410.640625
8.38,1767084410.65625
7.78,1767084410.671875
6.51,1767084410.6875
5.01,1767084410.703125
3.57,1767084410.71875
2.31,1767084410.734375
1.04,1767084410.75
-0.54,1767084410.765625
-2.78,1767084410.78125
-6.0,1767084410.796875
-10.35,1767084410.8125
-15.79,1767084410.828125
-22.05,1767084410.84375
-28.53,1767084410.859375
-34.27,1767084410.875
-38.09,1767084410.890625
-38.86,1767084410.90625
-35.89,1767084410.921875
-29.24,1767084410.9375
-19.82,1767084410.953125
-9.13,1767084410.96875
1.24,1767084410.984375
10.09,1767084411.0
16.88,1767084411.015625
21.69,1767084411.03125
24.86,1767084411.046875
26.63,1767084411.0625
27.0,1767084411.078125
25.85,1767084411.09375
23.21,1767084411.109375
19.48,1767084411.125
15.44,1767084411.140625
12.01,1767084411.15625
9.82,1767084411.171875
9.02,1767084411.1875
9.23,1767084411.203125
9.73,1767084411.21875
9.9,1767084411.234375
9.39,1767084411.25
8.23,1767084411.265625
6.68,1767084411.28125
4.98,1767084411.296875
3.12,1767084411.3125
0.87,1767084411.328125
-2.14,1767084411.34375
-6.23,1767084411.359375
-11.56,1767084411.375
-18.08,1767084411.390625
-25.5,1767084411.40625
-33.29,1767084411.421875
-40.6,1767084411.4375
-46.32,1767084411.453125
-49.28,1767084411.46875
-48.5,1767084411.484375
-43.6,1767084411.5
-34.99,1767084411.515625
-23.79,1767084411.53125
-11.5,1767084411.546875
0.43,1767084411.5625
10.95,1767084411.578125
19.53,1767084411.59375
26.07,1767084411.609375
30.64,1767084411.625
33.32,1767084411.640625
34.2,1767084411.65625
33.43,1767084411.671875
31.35,1767084411.6875
28.56,1767084411.703125
25.82,1767084411.71875
23.83,1767084411.734375
22.95,1767084411.75
23.06,1767084411.765625
23.59,1767084411.78125
23.72,1767084411.796875
22.76,1767084411.8125
20.48,1767084411.828125
17.14,1767084411.84375
13.38,1767084411.859375
9.78,1767084411.875
6.63,1767084411.890625
3.76,1767084411.90625
0.69,1767084411.921875
-3.17,1767084411.9375
-8.19,1767084411.953125
-14.47,1767084411.96875
-21.75,1767084411.984375
-29.47,1767084412.0
-36.79,1767084412.015625
-42.6,1767084412.03125
-45.75,1767084412.046875
-45.32,1767084412.0625
-40.99,1767084412.078125
-33.16,1767084412.09375
-22.99,1767084412.109375
-11.9,1767084412.125
-1.21,1767084412.140625
8.24,1767084412.15625
16.14,1767084412.171875
22.52,1767084412.1875
27.44,1767084412.203125
30.85,1767084412.21875
32.56,1767084412.234375
32.47,1767084412.25
30.73,1767084412.265625
27.81,1767084412.28125
24.42,1767084412.296875
21.27,1767084412.3125
18.8,1767084412.328125
17.09,1767084412.34375
15.86,1767084412.359375
14.68,1767084412.375
13.15,1767084412.390625
11.11,1767084412.40625
8.63,1767084412.421875
5.9,1767084412.4375
3.14,1767084412.453125
0.41,1767084412.46875
-2.43,1767084412.484375
-5.6,1767084412.5
-9.4,1767084412.515625
-14.09,1767084412.53125
-19.89,1767084412.546875
-26.87,1767084412.5625
-34.97,1767084412.578125
-43.75,1767084412.59375
-52.35,1767084412.609375
-59.51,1767084412.625
-63.76,1767084412.640625
-63.87,1767084412.65625
-59.29,1767084412.671875
-50.34,1767084412.6875
-38.12,1767084412.703125
-24.22,1767084412.71875
-10.17,1767084412.734375
2.8,1767084412.75
13.98,1767084412.765625
23.06,1767084412.78125
30.01,1767084412.796875
34.91,1767084412.8125
37.89,1767084412.828125
39.17,1767084412.84375
39.06,1767084412.859375
38.03,1767084412.875
36.56,1767084412.890625
35.08,1767084412.90625
33.92,1767084412.921875
33.19,1767084412.9375
32.84,1767084412.953125
32.69,1767084412.96875
32.51,1767084412.984375
32.06,1767084413.0
31.12,1767084413.015625
29.51,1767084413.03125
27.07,1767084413.046875
23.76,1767084413.0625
19.6,1767084413.078125
14.77,1767084413.09375
9.55,1767084413.109375
4.22,1767084413.125
-0.98,1767084413.140625
-5.98,1767084413.15625
-10.85,1767084413.171875
-15.84,1767084413.1875
-21.34,1767084413.203125
-27.74,1767084413.21875
-35.24,1767084413.234375
-43.59,1767084413.25
-51.88,1767084413.265625
-58.65,1767084413.28125
-62.12,1767084413.296875
-60.85,1767084413.3125
-54.24,1767084413.328125
-42.87,1767084413.34375
-28.34,1767084413.359375
-12.74,1767084413.375
2.07,1767084413.390625
14.94,1767084413.40625
25.58,1767084413.421875
34.28,1767084413.4375
41.46,1767084413.453125
47.34,1767084413.46875
51.8,1767084413.484375
54.6,1767084413.5
55.66,1767084413.515625
55.28,1767084413.53125
54.09,1767084413.546875
52.93,1767084413.5625
52.49,1767084413.578125
53.17,1767084413.59375
54.89,1767084413.609375
57.29,1767084413.625
59.84,1767084413.640625
62.07,1767084413.65625
63.72,1767084413.671875
64.74,1767084413.6875
65.33,1767084413.703125
65.76,1767084413.71875
66.3,1767084413.734375
67.09,1767084413.75
68.07,1767084413.765625
69.07,1767084413.78125
69.82,1767084413.796875
70.17,1767084413.8125
70.11,1767084413.828125
69.76,1767084413.84375
69.19,1767084413.859375
68.34,1767084413.875
66.87,1767084413.890625
64.34,1767084413.90625
60.41,1767084413.921875
54.98,1767084413.9375
48.26,1767084413.953125
40.58,1767084413.96875
32.29,1767084413.984375
23.68,1767084414.0
15.21,1767084414.015625
7.72,1767084414.03125
2.46,1767084414.046875
0.72,1767084414.0625
3.31,1767084414.078125
9.96,1767084414.09375
19.32,1767084414.109375
29.42,1767084414.125
38.58,1767084414.140625
46.11,1767084414.15625
52.39,1767084414.171875
58.24,1767084414.1875
63.89,1767084414.203125
68.25,1767084414.21875
68.93,1767084414.234375
63.16,1767084414.25
49.05,1767084414.265625
26.54,1767084414.28125
-2.32,1767084414.296875
-34.11,1767084414.3125
-65.1,1767084414.328125
-92.36,1767084414.34375
-114.26,1767084414.359375
-130.45,1767084414.375
-141.35,1767084414.390625
-147.67,1767084414.40625
-150.01,1767084414.421875
-148.85,1767084414.4375
-144.73,1767084414.453125
-138.34,1767084414.46875
-130.61,1767084414.484375
-122.54,1767084414.5
-114.97,1767084414.515625
-108.34,1767084414.53125
-102.69,1767084414.546875
-97.68,1767084414.5625
-92.87,1767084414.578125
-87.98,1767084414.59375
-83.01,1767084414.609375
-78.19,1767084414.625
-73.94,1767084414.640625
-70.65,1767084414.65625
-68.53,1767084414.671875
-67.63,1767084414.6875
-67.87,1767084414.703125
-69.13,1767084414.71875
-71.29,1767084414.734375
-74.21,1767084414.75
-77.51,1767084414.765625
-80.36,1767084414.78125
-81.52,1767084414.796875
-79.47,1767084414.8125
-72.91,1767084414.828125
-61.3,1767084414.84375
-45.12,1767084414.859375
-25.82,1767084414.875
-5.36,1767084414.890625
14.4,1767084414.90625
32.15,1767084414.921875
47.36,1767084414.9375
59.98,1767084414.953125
70.19,1767084414.96875
78.07,1767084414.984375
83.56,1767084415.0
86.6,1767084415.015625
87.29,1767084415.03125
86.02,1767084415.046875
83.34,1767084415.0625
79.9,1767084415.078125
76.19,1767084415.09375
72.54,1767084415.109375
69.05,1767084415.125
65.7,1767084415.140625
62.36,1767084415.15625
58.94,1767084415.171875
55.36,1767084415.1875
51.59,1767084415.203125
47.63,1767084415.21875
43.4,1767084415.234375
38.8,1767084415.25
33.67,1767084415.265625
27.9,1767084415.28125
21.49,1767084415.296875
14.64,1767084415.3125
7.65,1767084415.328125
0.84,1767084415.34375
-5.6,1767084415.359375
-11.71,1767084415.375
-17.69,1767084415.390625
-23.74,1767084415.40625
-29.88,1767084415.421875
-35.85,1767084415.4375
-41.15,1767084415.453125
-45.3,1767084415.46875
-48.04,1767084415.484375
-49.61,1767084415.5
-50.67,1767084415.515625
-52.09,1767084415.53125
-54.64,1767084415.546875
-58.64,1767084415.5625
-63.7,1767084415.578125
-68.79,1767084415.59375
-72.38,1767084415.609375
-72.91,1767084415.625
-69.2,1767084415.640625
-60.87,1767084415.65625
-48.47,1767084415.671875
-33.34,1767084415.6875
-17.23,1767084415.703125
-1.77,1767084415.71875
11.93,1767084415.734375
23.41,1767084415.75
32.73,1767084415.765625
40.23,1767084415.78125
46.23,1767084415.796875
50.9,1767084415.8125
54.31,1767084415.828125
56.59,1767084415.84375
58.04,1767084415.859375
59.09,1767084415.875
60.22,1767084415.890625
61.78,1767084415.90625
63.97,1767084415.921875
66.8,1767084415.9375
70.26,1767084415.953125
74.34,1767084415.96875
79.05,1767084415.984375
84.25,1767084416.0
89.6,1767084416.015625
94.51,1767084416.03125
98.34,1767084416.046875
100.64,1767084416.0625
101.39,1767084416.078125
101.06,1767084416.09375
100.49,1767084416.109375
100.58,1767084416.125
101.91,1767084416.140625
104.59,1767084416.15625
108.05,1767084416.171875
111.27,1767084416.1875
112.96,1767084416.203125
112.04,1767084416.21875
107.94,1767084416.234375
100.92,1767084416.25
91.89,1767084416.265625
82.08,1767084416.28125
72.49,1767084416.296875
63.38,1767084416.3125
54.38,1767084416.328125
44.64,1767084416.34375
33.52,1767084416.359375
20.93,1767084416.375
7.5,1767084416.390625
-5.53,1767084416.40625
-16.64,1767084416.421875
-24.3,1767084416.4375
-27.21,1767084416.453125
-24.65,1767084416.46875
-17.0,1767084416.484375
-6.08,1767084416.5
4.74,1767084416.515625
11.34,1767084416.53125
10.0,1767084416.546875
-1.12,1767084416.5625
-21.29,1767084416.578125
-47.4,1767084416.59375
-75.04,1767084416.609375
-100.02,1767084416.625
-119.48,1767084416.640625
-132.3,1767084416.65625
-138.72,1767084416.671875
-139.61,1767084416.6875
-135.94,1767084416.703125
-128.52,1767084416.71875
-118.24,1767084416.734375
-106.19,1767084416.75
-93.73,1767084416.765625
-82.19,1767084416.78125
-72.49,1767084416.796875
-64.86,1767084416.8125
-58.8,1767084416.828125
-53.41,1767084416.84375
-47.89,1767084416.859375
-41.9,1767084416.875
-35.71,1767084416.890625
-30.02,1767084416.90625
-25.51,1767084416.921875
-22.53,1767084416.9375
-20.97,1767084416.953125
-20.39,1767084416.96875
-20.33,1767084416.984375
-20.57,1767084417.0
-21.15,1767084417.015625
-22.29,1767084417.03125
-24.16,1767084417.046875
-26.73,1767084417.0625
-29.74,1767084417.078125
-32.83,1767084417.09375
-35.7,1767084417.109375
-38.24,1767084417.125
-40.58,1767084417.140625
-43.11,1767084417.15625
-46.29,1767084417.171875
-50.52,1767084417.1875
-55.87,1767084417.203125
-61.88,1767084417.21875
-67.48,1767084417.234375
-71.17,1767084417.25
-71.44,1767084417.265625
-67.32,1767084417.28125
-58.79,1767084417.296875
-46.83,1767084417.3125
-33.17,1767084417.328125
-19.69,1767084417.34375
-7.91,1767084417.359375
1.38,1767084417.375
8.09,1767084417.390625
12.59,1767084417.40625
15.44,1767084417.421875
17.12,1767084417.4375
18.0,1767084417.453125
18.32,1767084417.46875
18.26,1767084417.484375
17.93,1767084417.5
17.46,1767084417.515625
16.99,1767084417.53125
16.71,1767084417.546875
16.83,1767084417.5625
17.57,1767084417.578125
19.01,1767084417.59375
21.05,1767084417.609375
23.4,1767084417.625
25.63,1767084417.640625
27.24,1767084417.65625
27.81,1767084417.671875
27.07,1767084417.6875
25.04,1767084417.703125
21.96,1767084417.71875
18.27,1767084417.734375
14.52,1767084417.75
11.13,1767084417.765625
8.31,1767084417.78125
6.02,1767084417.796875
3.98,1767084417.8125
1.84,1767084417.828125
-0.65,1767084417.84375
-3.58,1767084417.859375
-6.8,1767084417.875
-10.11,1767084417.890625
-13.29,1767084417.90625
-16.33,1767084417.921875
-19.38,1767084417.9375
-22.84,1767084417.953125
-27.17,1767084417.96875
-32.72,1767084417.984375
-39.56,1767084418.0
-47.25,1767084418.015625
-54.76,1767084418.03125
-60.57,1767084418.046875
-63.08,1767084418.0625
-61.04,1767084418.078125
-54.03,1767084418.09375
-42.69,1767084418.109375
-28.55,1767084418.125
-13.56,1767084418.140625
0.46,1767084418.15625
12.31,1767084418.171875
21.55,1767084418.1875
28.37,1767084418.203125
33.32,1767084418.21875
36.9,1767084418.234375
39.46,1767084418.25
41.16,1767084418.265625
42.08,1767084418.28125
42.32,1767084418.296875
42.07,1767084418.3125
41.6,1767084418.328125
41.19,1767084418.34375
41.08,1767084418.359375
41.4,1767084418.375
42.14,1767084418.390625
43.19,1767084418.40625
44.3,1767084418.421875
45.25,1767084418.4375
45.81,1767084418.453125
45.82,1767084418.46875
45.21,1767084418.484375
43.89,1767084418.5
41.85,1767084418.515625
39.09,1767084418.53125
35.71,1767084418.546875
31.85,1767084418.5625
27.68,1767084418.578125
23.35,1767084418.59375
18.94,1767084418.609375
14.51,1767084418.625
10.1,1767084418.640625
5.84,1767084418.65625
1.89,1767084418.671875
-1.69,1767084418.6875
-4.96,1767084418.703125
-8.24,1767084418.71875
-12.01,1767084418.734375
-16.75,1767084418.75
-22.76,1767084418.765625
-29.92,1767084418.78125
-37.57,1767084418.796875
-44.54,1767084418.8125
-49.34,1767084418.828125
-50.55,1767084418.84375
-47.26,1767084418.859375
-39.46,1767084418.875
-28.08,1767084418.890625
-14.8,1767084418.90625
-1.52,1767084418.921875
10.26,1767084418.9375
19.74,1767084418.953125
26.94,1767084418.96875
32.38,1767084418.984375
36.64,1767084419.0
39.98,1767084419.015625
42.24,1767084419.03125
42.99,1767084419.046875
41.86,1767084419.0625
38.77,1767084419.078125
34.03,1767084419.09375
28.29,1767084419.109375
22.25,1767084419.125
16.43,1767084419.140625
11.05,1767084419.15625
6.0,1767084419.171875
1.04,1767084419.1875
-4.08,1767084419.203125
-9.48,1767084419.21875
-15.11,1767084419.234375
-20.76,1767084419.25
-26.15,1767084419.265625
-31.09,1767084419.28125
-35.46,1767084419.296875
-39.27,1767084419.3125
-42.7,1767084419.328125
-45.96,1767084419.34375
-49.25,1767084419.359375
-52.69,1767084419.375
-56.26,1767084419.390625
-59.78,1767084419.40625
-63.02,1767084419.421875
-65.73,1767084419.4375
-67.74,1767084419.453125
-69.07,1767084419.46875
-69.89,1767084419.484375
-70.57,1767084419.5
-71.58,1767084419.515625
-73.31,1767084419.53125
-75.88,1767084419.546875
-78.98,1767084419.5625
-81.74,1767084419.578125
-82.91,1767084419.59375
-81.19,1767084419.609375
-75.59,1767084419.625
-65.85,1767084419.640625
-52.51,1767084419.65625
-36.78,1767084419.671875
-20.2,1767084419.6875
-4.22,1767084419.703125
10.05,1767084419.71875
21.94,1767084419.734375
31.12,1767084419.75
37.53,1767084419.765625
41.26,1767084419.78125
42.6,1767084419.796875
42.04,1767084419.8125
40.31,1767084419.828125
38.21,1767084419.84375
36.41,1767084419.859375
35.32,1767084419.875
34.95,1767084419.890625
35.03,1767084419.90625
35.16,1767084419.921875
35.03,1767084419.9375
34.53,1767084419.953125
33.73,1767084419.96875
32.76,1767084419.984375
31.63,1767084420.0
30.12,1767084420.015625
27.92,1767084420.03125
24.71,1767084420.046875
20.43,1767084420.0625
15.33,1767084420.078125
9.87,1767084420.09375
4.57,1767084420.109375
-0.19,1767084420.125
-4.31,1767084420.140625
-7.94,1767084420.15625
-11.44,1767084420.171875
-15.28,1767084420.1875
-19.88,1767084420.203125
-25.56,1767084420.21875
-32.38,1767084420.234375
-39.99,1767084420.25
-47.58,1767084420.265625
-53.89,1767084420.28125
-57.5,1767084420.296875
-57.22,1767084420.3125
-52.48,1767084420.328125
-43.53,1767084420.34375
-31.46,1767084420.359375
-17.85,1767084420.375
-4.37,1767084420.390625
7.64,1767084420.40625
17.35,1767084420.421875
24.52,1767084420.4375
29.28,1767084420.453125
31.93,1767084420.46875
32.84,1767084420.484375
32.33,1767084420.5
30.77,1767084420.515625
28.64,1767084420.53125
26.49,1767084420.546875
24.88,1767084420.5625
24.17,1767084420.578125
24.45,1767084420.59375
25.46,1767084420.609375
26.72,1767084420.625
27.7,1767084420.640625
28.03,1767084420.65625
27.55,1767084420.671875
26.32,1767084420.6875
24.51,1767084420.703125
22.3,1767084420.71875
19.76,1767084420.734375
16.96,1767084420.75
13.93,1767084420.765625
10.82,1767084420.78125
7.75,1767084420.796875
4.85,1767084420.8125
2.0,1767084420.828125
-1.12,1767084420.84375
-4.98,1767084420.859375
-9.82,1767084420.875
-15.34,1767084420.890625
-20.62,1767084420.90625
-24.18,1767084420.921875
-24.56,1767084420.9375
-20.82,1767084420.953125
-13.03,1767084420.96875
-2.2,1767084420.984375
10.01,1767084421.0
21.91,1767084421.015625
32.29,1767084421.03125
40.6,1767084421.046875
46.89,1767084421.0625
51.33,1767084421.078125
53.97,1767084421.09375
54.68,1767084421.109375
53.24,1767084421.125
49.71,1767084421.140625
44.57,1767084421.15625
38.77,1767084421.171875
33.37,1767084421.1875
29.25,1767084421.203125
26.78,1767084421.21875
25.65,1767084421.234375
25.11,1767084421.25
24.32,1767084421.265625
22.62,1767084421.28125
19.79,1767084421.296875
15.98,1767084421.3125
11.58,1767084421.328125
6.94,1767084421.34375
2.24,1767084421.359375
-2.53,1767084421.375
-7.5,1767084421.390625
-12.91,1767084421.40625
-18.97,1767084421.421875
-25.87,1767084421.4375
-33.74,1767084421.453125
-42.45,1767084421.46875
-51.5,1767084421.484375
-59.88,1767084421.5
-66.17,1767084421.515625
-68.96,1767084421.53125
-67.22,1767084421.546875
-60.82,1767084421.5625
-50.57,1767084421.578125
-38.07,1767084421.59375
-25.14,1767084421.609375
-13.37,1767084421.625
-3.67,1767084421.640625
3.66,1767084421.65625
8.72,1767084421.671875
11.72,1767084421.6875
12.7,1767084421.703125
11.7,1767084421.71875
8.84,1767084421.734375
4.62,1767084421.75
-0.07,1767084421.765625
-4.16,1767084421.78125
-6.82,1767084421.796875
-7.76,1767084421.8125
-7.32,1767084421.828125
-6.29,1767084421.84375
-5.5,1767084421.859375
-5.5,1767084421.875
-6.39,1767084421.890625
-7.92,1767084421.90625
-9.7,1767084421.921875
-11.49,1767084421.9375
-13.24,1767084421.953125
-15.12,1767084421.96875
-17.37,1767084421.984375
-20.26,1767084422.0
-24.03,1767084422.015625
-28.81,1767084422.03125
-34.64,1767084422.046875
-41.25,1767084422.0625
-48.02,1767084422.078125
-53.86,1767084422.09375
-57.41,1767084422.109375
-57.4,1767084422.125
-53.06,1767084422.140625
-44.41,1767084422.15625
-32.38,1767084422.171875
-18.49,1767084422.1875
-4.45,1767084422.203125
8.34,1767084422.21875
19.01,1767084422.234375
27.28,1767084422.25
33.26,1767084422.265625
37.2,1767084422.28125
39.34,1767084422.296875
39.83,1767084422.3125
38.86,1767084422.328125
36.76,1767084422.34375
34.01,1767084422.359375
31.17,1767084422.375
28.73,1767084422.390625
26.9,1767084422.40625
25.59,1767084422.421875
24.42,1767084422.4375
22.89,1767084422.453125
20.55,1767084422.46875
17.17,1767084422.484375
12.76,1767084422.5
7.57,1767084422.515625
1.98,1767084422.53125
-3.69,1767084422.546875
-9.21,1767084422.5625
-14.61,1767084422.578125
-20.03,1767084422.59375
-25.76,1767084422.609375
-32.0,1767084422.625
-38.9,1767084422.640625
-46.37,1767084422.65625
-54.1,1767084422.671875
-61.46,1767084422.6875
-67.53,1767084422.703125
-71.19,1767084422.71875
-71.33,1767084422.734375
-67.2,1767084422.75
-58.71,1767084422.765625
-46.56,1767084422.78125
-32.09,1767084422.796875
-16.95,1767084422.8125
-2.67,1767084422.828125
9.74,1767084422.84375
19.78,1767084422.859375
27.44,1767084422.875
32.93,1767084422.890625
36.48,1767084422.90625
38.3,1767084422.921875
38.61,1767084422.9375
37.78,1767084422.953125
36.29,1767084422.96875
34.69,1767084422.984375
33.42,1767084423.0
32.73,1767084423.015625
32.58,1767084423.03125
32.72,1767084423.046875
32.85,1767084423.0625
32.66,1767084423.078125
32.0,1767084423.09375
30.74,1767084423.109375
28.78,1767084423.125
26.04,1767084423.140625
22.49,1767084423.15625
18.21,1767084423.171875
13.38,1767084423.1875
8.33,1767084423.203125
3.34,1767084423.21875
-1.43,1767084423.234375
-6.01,1767084423.25
-10.64,1767084423.265625
-15.7,1767084423.28125
-21.62,1767084423.296875
-28.66,1767084423.3125
-36.78,1767084423.328125
-45.4,1767084423.34375
-53.37,1767084423.359375
-59.2,1767084423.375
-61.34,1767084423.390625
-58.83,1767084423.40625
-51.58,1767084423.421875
-40.51,1767084423.4375
-27.24,1767084423.453125
-13.48,1767084423.46875
-0.62,1767084423.484375
10.62,1767084423.5
20.08,1767084423.515625
27.88,1767084423.53125
34.14,1767084423.546875
38.81,1767084423.5625
41.81,1767084423.578125
43.15,1767084423.59375
43.09,1767084423.609375
42.15,1767084423.625
40.94,1767084423.640625
40.01,1767084423.65625
39.73,1767084423.671875
40.17,1767084423.6875
41.18,1767084423.703125
42.49,1767084423.71875
43.7,1767084423.734375
44.48,1767084423.75
44.54,1767084423.765625
43.71,1767084423.78125
41.93,1767084423.796875
39.3,1767084423.8125
35.98,1767084423.828125
32.18,1767084423.84375
28.13,1767084423.859375
23.91,1767084423.875
19.58,1767084423.890625
15.07,1767084423.90625
10.33,1767084423.921875
5.35,1767084423.9375
0.2,1767084423.953125
-4.97,1767084423.96875
-9.98,1767084423.984375
-14.69,1767084424.0
-19.08,1767084424.015625
-23.24,1767084424.03125
-27.43,1767084424.046875
-32.05,1767084424.0625
-37.52,1767084424.078125
-44.11,1767084424.09375
-51.78,1767084424.109375
-59.94,1767084424.125
-67.44,1767084424.140625
-72.78,1767084424.15625
-74.46,1767084424.171875
-71.5,1767084424.1875
-63.78,1767084424.203125
-52.14,1767084424.21875
-38.1,1767084424.234375
-23.37,1767084424.25
-9.35,1767084424.265625
3.17,1767084424.28125
14.06,1767084424.296875
23.53,1767084424.3125
31.78,1767084424.328125
38.82,1767084424.34375
44.34,1767084424.359375
48.07,1767084424.375
49.9,1767084424.390625
50.21,1767084424.40625
49.69,1767084424.421875
49.14,1767084424.4375
49.12,1767084424.453125
49.71,1767084424.46875
50.57,1767084424.484375
51.2,1767084424.5
51.25,1767084424.515625
50.69,1767084424.53125
49.79,1767084424.546875
48.85,1767084424.5625
47.96,1767084424.578125
46.87,1767084424.59375
45.19,1767084424.609375
42.59,1767084424.625
39.03,1767084424.640625
34.8,1767084424.65625
30.37,1767084424.671875
26.18,1767084424.6875
22.41,1767084424.703125
18.99,1767084424.71875
15.59,1767084424.734375
11.9,1767084424.75
7.67,1767084424.765625
2.91,1767084424.78125
-2.17,1767084424.796875
-7.25,1767084424.8125
-12.02,1767084424.828125
-16.3,1767084424.84375
-20.13,1767084424.859375
-23.77,1767084424.875
-27.63,1767084424.890625
-32.14,1767084424.90625
-37.65,1767084424.921875
-44.21,1767084424.9375
-51.47,1767084424.953125
-58.64,1767084424.96875
-64.48,1767084424.984375
-67.6,1767084425.0
-66.85,1767084425.015625
-61.67,1767084425.03125
-52.35,1767084425.046875
-40.02,1767084425.0625
-26.21,1767084425.078125
-12.5,1767084425.09375
0.0,1767084425.109375
10.82,1767084425.125
20.0,1767084425.140625
27.83,1767084425.15625
34.56,1767084425.171875
40.16,1767084425.1875
44.45,1767084425.203125
47.27,1767084425.21875
48.7,1767084425.234375
49.1,1767084425.25
49.06,1767084425.265625
49.16,1767084425.28125
49.81,1767084425.296875
51.14,1767084425.3125
53.01,1767084425.328125
55.16,1767084425.34375
57.32,1767084425.359375
59.22,1767084425.375
60.68,1767084425.390625
61.57,1767084425.40625
61.81,1767084425.421875
61.43,1767084425.4375
60.57,1767084425.453125
59.47,1767084425.46875
58.53,1767084425.484375
58.07,1767084425.5
58.29,1767084425.515625
59.03,1767084425.53125
59.73,1767084425.546875
59.54,1767084425.5625
57.66,1767084425.578125
53.66,1767084425.59375
47.7,1767084425.609375
40.52,1767084425.625
33.02,1767084425.640625
25.88,1767084425.65625
19.2,1767084425.671875
12.49,1767084425.6875
4.99,1767084425.703125
-3.86,1767084425.71875
-14.07,1767084425.734375
-25.19,1767084425.75
-36.41,1767084425.765625
-47.02,1767084425.78125
-56.57,1767084425.796875
-64.88,1767084425.8125
-71.87,1767084425.828125
-77.32,1767084425.84375
-80.89,1767084425.859375
-82.14,1767084425.875
-80.83,1767084425.890625
-77.11,1767084425.90625
-71.52,1767084425.921875
-64.86,1767084425.9375
-57.84,1767084425.953125
-50.88,1767084425.96875
-44.05,1767084425.984375
-37.17,1767084426.0
-30.12,1767084426.015625
-23.03,1767084426.03125
-16.32,1767084426.046875
-10.54,1767084426.0625
-6.06,1767084426.078125
-2.9,1767084426.09375
-0.72,1767084426.109375
0.98,1767084426.125
2.6,1767084426.140625
4.23,1767084426.15625
5.67,1767084426.171875
6.6,1767084426.1875
6.77,1767084426.203125
6.22,1767084426.21875
5.22,1767084426.234375
4.14,1767084426.25
3.22,1767084426.265625
2.51,1767084426.28125
1.87,1767084426.296875
1.09,1767084426.3125
0.03,1767084426.328125
-1.32,1767084426.34375
-2.86,1767084426.359375
-4.41,1767084426.375
-5.81,1767084426.390625
-6.96,1767084426.40625
-7.92,1767084426.421875
-8.86,1767084426.4375
-10.09,1767084426.453125
-11.93,1767084426.46875
-14.58,1767084426.484375
-18.02,1767084426.5
-22.02,1767084426.515625
-26.26,1767084426.53125
-30.55,1767084426.546875
-34.98,1767084426.5625
-39.87,1767084426.578125
-45.67,1767084426.59375
-52.68,1767084426.609375
-60.76,1767084426.625
-69.32,1767084426.640625
-77.27,1767084426.65625
-83.35,1767084426.671875
-86.31,1767084426.6875
-85.33,1767084426.703125
-80.15,1767084426.71875
-71.17,1767084426.734375
-59.34,1767084426.75
-45.88,1767084426.765625
-31.94,1767084426.78125
-18.41,1767084426.796875
-5.82,1767084426.8125
5.55,1767084426.828125
15.48,1767084426.84375
23.75,1767084426.859375
30.18,1767084426.875
34.74,1767084426.890625
37.7,1767084426.90625
39.53,1767084426.921875
40.82,1767084426.9375
42.05,1767084426.953125
43.46,1767084426.96875
45.03,1767084426.984375
46.56,1767084427.0
47.87,1767084427.015625
48.8,1767084427.03125
49.35,1767084427.046875
49.56,1767084427.0625
49.43,1767084427.078125
48.91,1767084427.09375
47.89,1767084427.109375
46.24,1767084427.125
43.93,1767084427.140625
41.03,1767084427.15625
37.76,1767084427.171875
34.38,1767084427.1875
31.12,1767084427.203125
28.08,1767084427.21875
25.21,1767084427.234375
22.3,1767084427.25
19.08,1767084427.265625
15.32,1767084427.28125
10.94,1767084427.296875
6.05,1767084427.3125
0.98,1767084427.328125
-3.9,1767084427.34375
-8.28,1767084427.359375
-12.11,1767084427.375
-15.67,1767084427.390625
-19.53,1767084427.40625
-24.31,1767084427.421875
-30.38,1767084427.4375
-37.63,1767084427.453125
-45.3,1767084427.46875
-52.13,1767084427.484375
-56.65,1767084427.5
-57.59,1767084427.515625
-54.33,1767084427.53125
-47.11,1767084427.546875
-36.92,1767084427.5625
-25.27,1767084427.578125
-13.66,1767084427.59375
-3.21,1767084427.609375
5.57,1767084427.625
12.69,1767084427.640625
18.38,1767084427.65625
22.82,1767084427.671875
26.02,1767084427.6875
27.9,1767084427.703125
28.47,1767084427.71875
27.94,1767084427.734375
26.83,1767084427.75
25.68,1767084427.765625
24.95,1767084427.78125
24.8,1767084427.796875
25.08,1767084427.8125
25.47,1767084427.828125
25.66,1767084427.84375
25.56,1767084427.859375
25.23,1767084427.875
24.9,1767084427.890625
24.69,1767084427.90625
24.58,1767084427.921875
24.33,1767084427.9375
23.61,1767084427.953125
22.07,1767084427.96875
19.56,1767084427.984375
16.08,1767084428.0
11.88,1767084428.015625
7.33,1767084428.03125
2.87,1767084428.046875
-1.17,1767084428.0625
-4.59,1767084428.078125
-7.48,1767084428.09375
-10.14,1767084428.109375
-12.97,1767084428.125
-16.41,1767084428.140625
-20.74,1767084428.15625
-25.98,1767084428.171875
-31.86,1767084428.1875
-37.79,1767084428.203125
-42.91,1767084428.21875
-46.25,1767084428.234375
-46.89,1767084428.25
-44.29,1767084428.265625
-38.43,1767084428.28125
-29.88,1767084428.296875
-19.7,1767084428.3125
-9.06,1767084428.328125
0.99,1767084428.34375
9.78,1767084428.359375
16.96,1767084428.375
22.41,1767084428.390625
26.1,1767084428.40625
28.01,1767084428.421875
28.19,1767084428.4375
26.9,1767084428.453125
24.61,1767084428.46875
22.0,1767084428.484375
19.71,1767084428.5
18.17,1767084428.515625
17.5,1767084428.53125
17.46,1767084428.546875
17.65,1767084428.5625
17.71,1767084428.578125
17.46,1767084428.59375
16.88,1767084428.609375
16.05,1767084428.625
15.01,1767084428.640625
13.68,1767084428.65625
11.86,1767084428.671875
9.36,1767084428.6875
6.12,1767084428.703125
2.24,1767084428.71875
-2.0,1767084428.734375
-6.22,1767084428.75
-10.08,1767084428.765625
-13.37,1767084428.78125
-16.14,1767084428.796875
-18.7,1767084428.8125
-21.6,1767084428.828125
-25.37,1767084428.84375
-30.34,1767084428.859375
-36.41,1767084428.875
-42.9,1767084428.890625
-48.66,1767084428.90625
-52.35,1767084428.921875
-52.8,1767084428.9375
-49.43,1767084428.953125
-42.42,1767084428.96875
-32.67,1767084428.984375
-21.52,1767084429.0
-10.31,1767084429.015625
-0.12,1767084429.03125
8.48,1767084429.046875
15.4,1767084429.0625
20.73,1767084429.078125
24.62,1767084429.09375
27.16,1767084429.109375
28.4,1767084429.125
28.47,1767084429.140625
27.66,1767084429.15625
26.43,1767084429.171875
25.31,1767084429.1875
24.72,1767084429.203125
24.89,1767084429.21875
25.79,1767084429.234375
27.16,1767084429.25
28.69,1767084429.265625
30.04,1767084429.28125
30.91,1767084429.296875
31.11,1767084429.3125
30.52,1767084429.328125
29.05,1767084429.34375
26.65,1767084429.359375
23.33,1767084429.375
19.13,1767084429.390625
14.21,1767084429.40625
8.87,1767084429.421875
3.49,1767084429.4375
-1.53,1767084429.453125
-5.93,1767084429.46875
-9.73,1767084429.484375
-13.26,1767084429.5
-17.08,1767084429.515625
-21.83,1767084429.53125
-27.86,1767084429.546875
-35.07,1767084429.5625
-42.69,1767084429.578125
-49.45,1767084429.59375
-53.91,1767084429.609375
-54.91,1767084429.625
-51.98,1767084429.640625
-45.53,1767084429.65625
-36.67,1767084429.671875
-26.82,1767084429.6875
-17.23,1767084429.703125
-8.72,1767084429.71875
-1.54,1767084429.734375
4.4,1767084429.75
9.3,1767084429.765625
13.28,1767084429.78125
16.25,1767084429.796875
18.09,1767084429.8125
18.78,1767084429.828125
18.52,1767084429.84375
17.74,1767084429.859375
16.99,1767084429.875
16.7,1767084429.890625
17.07,1767084429.90625
18.01,1767084429.921875
19.18,1767084429.9375
20.17,1767084429.953125
20.7,1767084429.96875
20.7,1767084429.984375
20.32,1767084430.0
19.79,1767084430.015625
19.26,1767084430.03125
18.69,1767084430.046875
17.87,1767084430.0625
16.5,1767084430.078125
14.37,1767084430.09375
11.5,1767084430.109375
8.19,1767084430.125
4.94,1767084430.140625
2.22,1767084430.15625
0.37,1767084430.171875
-0.62,1767084430.1875
-0.99,1767084430.203125
-1.21,1767084430.21875
-1.86,1767084430.234375
-3.5,1767084430.25
-6.56,1767084430.265625
-11.21,1767084430.28125
-17.12,1767084430.296875
-23.41,1767084430.3125
-28.73,1767084430.328125
-31.64,1767084430.34375
-31.02,1767084430.359375
-26.57,1767084430.375
-18.86,1767084430.390625
-9.12,1767084430.40625
1.24,1767084430.421875
11.08,1767084430.4375
19.82,1767084430.453125
27.3,1767084430.46875
33.59,1767084430.484375
38.63,1767084430.5
42.19,1767084430.515625
43.98,1767084430.53125
43.87,1767084430.546875
42.05,1767084430.5625
39.04,1767084430.578125
35.59,1767084430.59375
32.36,1767084430.609375
29.8,1767084430.625
28.07,1767084430.640625
27.06,1767084430.65625
26.52,1767084430.671875
26.19,1767084430.6875
25.86,1767084430.703125
25.33,1767084430.71875
24.44,1767084430.734375
23.05,1767084430.75
21.06,1767084430.765625
18.5,1767084430.78125
15.42,1767084430.796875
11.96,1767084430.8125
8.18,1767084430.828125
4.12,1767084430.84375
-0.19,1767084430.859375
-4.68,1767084430.875
-9.18,1767084430.890625
-13.47,1767084430.90625
-17.36,1767084430.921875
-20.84,1767084430.9375
-24.08,1767084430.953125
-27.42,1767084430.96875
-31.2,1767084430.984375
-35.7,1767084431.0
-40.99,1767084431.015625
-46.99,1767084431.03125
-53.37,1767084431.046875
-59.63,1767084431.0625
-64.99,1767084431.078125
-68.51,1767084431.09375
-69.28,1767084431.109375
-66.69,1767084431.125
-60.66,1767084431.140625
-51.8,1767084431.15625
-41.23,1767084431.171875
-30.23,1767084431.1875
-19.96,1767084431.203125
-11.07,1767084431.21875
-3.79,1767084431.234375
2.01,1767084431.25
6.5,1767084431.265625
9.81,1767084431.28125
11.96,1767084431.296875
13.02,1767084431.3125
13.21,1767084431.328125
12.93,1767084431.34375
12.65,1767084431.359375
12.75,1767084431.375
13.39,1767084431.390625
14.42,1767084431.40625
15.57,1767084431.421875
16.52,1767084431.4375
17.07,1767084431.453125
17.17,1767084431.46875
16.85,1767084431.484375
16.15,1767084431.5
15.08,1767084431.515625
13.6,1767084431.53125
11.65,1767084431.546875
9.2,1767084431.5625
6.27,1767084431.578125
2.96,1767084431.59375
-0.6,1767084431.609375
-4.18,1767084431.625
-7.58,1767084431.640625
-10.65,1767084431.65625
-13.36,1767084431.671875
-15.81,1767084431.6875
-18.16,1767084431.703125
-20.57,1767084431.71875
-23.19,1767084431.734375
-26.18,1767084431.75
-29.72,1767084431.765625
-33.98,1767084431.78125
-39.03,1767084431.796875
-44.59,1767084431.8125
-50.0,1767084431.828125
-54.19,1767084431.84375
-55.99,1767084431.859375
-54.52,1767084431.875
-49.47,1767084431.890625
-41.32,1767084431.90625
-31.09,1767084431.921875
-20.11,1767084431.9375
-9.57,1767084431.953125
-0.23,1767084431.96875
7.56,1767084431.984375
13.79,1767084432.0
18.58,1767084432.015625
22.01,1767084432.03125
24.12,1767084432.046875
24.94,1767084432.0625
24.63,1767084432.078125
23.56,1767084432.09375
22.23,1767084432.109375
21.16,1767084432.125
20.71,1767084432.140625
20.97,1767084432.15625
21.76,1767084432.171875
22.78,1767084432.1875
23.72,1767084432.203125
24.34,1767084432.21875
24.57,1767084432.234375
24.4,1767084432.25
23.85,1767084432.265625
22.9,1767084432.28125
21.53,1767084432.296875
19.8,1767084432.3125
17.81,1767084432.328125
15.72,1767084432.34375
13.63,1767084432.359375
11.57,1767084432.375
9.53,1767084432.390625
7.49,1767084432.40625
5.53,1767084432.421875
3.76,1767084432.4375
2.28,1767084432.453125
1.09,1767084432.46875
0.04,1767084432.484375
-1.11,1767084432.5
-2.6,1767084432.515625
-4.57,1767084432.53125
-6.99,1767084432.546875
-9.64,1767084432.5625
-12.11,1767084432.578125
-13.8,1767084432.59375
-14.05,1767084432.609375
-12.27,1767084432.625
-8.16,1767084432.640625
-1.94,1767084432.65625
5.63,1767084432.671875
13.36,1767084432.6875
20.11,1767084432.703125
25.15,1767084432.71875
28.42,1767084432.734375
30.46,1767084432.75
32.09,1767084432.765625
33.94,1767084432.78125
36.25,1767084432.796875
38.83,1767084432.8125
41.22,1767084432.828125
42.98,1767084432.84375
43.77,1767084432.859375
43.43,1767084432.875
41.82,1767084432.890625
38.82,1767084432.90625
34.36,1767084432.921875
28.47,1767084432.9375
21.48,1767084432.953125
13.98,1767084432.96875
6.71,1767084432.984375
0.36,1767084433.0
-4.68,1767084433.015625
-8.4,1767084433.03125
-11.19,1767084433.046875
-13.58,1767084433.0625
-16.06,1767084433.078125
-18.81,1767084433.09375
-21.7,1767084433.109375
-24.38,1767084433.125
-26.53,1767084433.140625
-28.06,1767084433.15625
-29.1,1767084433.171875
-30.0,1767084433.1875
-31.07,1767084433.203125
-32.52,1767084433.21875
-34.41,1767084433.234375
-36.76,1767084433.25
-39.58,1767084433.265625
-42.96,1767084433.28125
-46.96,1767084433.296875
-51.55,1767084433.3125
-56.46,1767084433.328125
-61.11,1767084433.34375
-64.65,1767084433.359375
-66.15,1767084433.375
-64.79,1767084433.390625
-60.17,1767084433.40625
-52.45,1767084433.421875
-42.36,1767084433.4375
-31.0,1767084433.453125
-19.59,1767084433.46875
-9.18,1767084433.484375
-0.44,1767084433.5
6.29,1767084433.515625
10.98,1767084433.53125
13.75,1767084433.546875
14.84,1767084433.5625
14.52,1767084433.578125
13.15,1767084433.59375
11.1,1767084433.609375
8.73,1767084433.625
6.33,1767084433.640625
4.14,1767084433.65625
2.34,1767084433.671875
1.14,1767084433.6875
0.75,1767084433.703125
1.32,1767084433.71875
2.85,1767084433.734375
5.11,1767084433.75
7.67,1767084433.765625
9.98,1767084433.78125
11.58,1767084433.796875
12.19,1767084433.8125
11.72,1767084433.828125
10.27,1767084433.84375
8.01,1767084433.859375
5.12,1767084433.875
1.84,1767084433.890625
-1.6,1767084433.90625
-4.89,1767084433.921875
-7.86,1767084433.9375
-10.5,1767084433.953125
-13.11,1767084433.96875
-16.16,1767084433.984375
-20.13,1767084434.0
-25.16,1767084434.015625
-30.82,1767084434.03125
-36.17,1767084434.046875
-39.92,1767084434.0625
-40.9,1767084434.078125
-38.42,1767084434.09375
-32.55,1767084434.109375
-24.1,1767084434.125
-14.36,1767084434.140625
-4.72,1767084434.15625
3.74,1767084434.171875
10.48,1767084434.1875
15.45,1767084434.203125
18.94,1767084434.21875
21.29,1767084434.234375
22.66,1767084434.25
23.06,1767084434.265625
22.45,1767084434.28125
20.92,1767084434.296875
18.82,1767084434.3125
16.64,1767084434.328125
14.89,1767084434.34375
13.79,1767084434.359375
13.28,1767084434.375
13.02,1767084434.390625
12.63,1767084434.40625
11.84,1767084434.421875
10.54,1767084434.4375
8.78,1767084434.453125
6.65,1767084434.46875
4.23,1767084434.484375
1.56,1767084434.5
-1.26,1767084434.515625
-4.16,1767084434.53125
-7.02,1767084434.546875
-9.83,1767084434.5625
-12.68,1767084434.578125
-15.74,1767084434.59375
-19.24,1767084434.609375
-23.32,1767084434.625
-27.96,1767084434.640625
-32.84,1767084434.65625
-37.37,1767084434.671875
-40.69,1767084434.6875
-41.85,1767084434.703125
-40.11,1767084434.71875
-35.14,1767084434.734375
-27.17,1767084434.75
-16.98,1767084434.765625
-5.62,1767084434.78125
5.84,1767084434.796875
16.56,1767084434.8125
26.01,1767084434.828125
33.92,1767084434.84375
40.13,1767084434.859375
44.59,1767084434.875
47.37,1767084434.890625
48.77,1767084434.90625
49.31,1767084434.921875
49.62,1767084434.9375
50.26,1767084434.953125
51.55,1767084434.96875
53.45,1767084434.984375
55.73,1767084435.0
58.06,1767084435.015625
60.25,1767084435.03125
62.32,1767084435.046875
64.43,1767084435.0625
66.84,1767084435.078125
69.69,1767084435.09375
72.92,1767084435.109375
76.18,1767084435.125
78.86,1767084435.140625
80.2,1767084435.15625
79.52,1767084435.171875
76.51,1767084435.1875
71.54,1767084435.203125
65.54,1767084435.21875
59.66,1767084435.234375
54.64,1767084435.25
50.42,1767084435.265625
46.15,1767084435.28125
40.82,1767084435.296875
34.03,1767084435.3125
26.5,1767084435.328125
19.91,1767084435.34375
16.23,1767084435.359375
16.84,1767084435.375
21.97,1767084435.390625
30.51,1767084435.40625
40.37,1767084435.421875
48.86,1767084435.4375
53.16,1767084435.453125
50.81,1767084435.46875
40.18,1767084435.484375
21.0,1767084435.5
-5.37,1767084435.515625
-36.11,1767084435.53125
-67.64,1767084435.546875
-96.61,1767084435.5625
-120.72,1767084435.578125
-138.97,1767084435.59375
-151.42,1767084435.609375
-158.61,1767084435.625
-161.16,1767084435.640625
-159.55,1767084435.65625
-154.32,1767084435.671875
-146.26,1767084435.6875
-136.35,1767084435.703125
-125.68,1767084435.71875
-115.14,1767084435.734375
-105.28,1767084435.75
-96.26,1767084435.765625
-88.05,1767084435.78125
-80.52,1767084435.796875
-73.65,1767084435.8125
-67.43,1767084435.828125
-61.82,1767084435.84375
-56.71,1767084435.859375
-51.91,1767084435.875
-47.25,1767084435.890625
-42.77,1767084435.90625
-38.71,1767084435.921875
-35.54,1767084435.9375
-33.76,1767084435.953125
-33.67,1767084435.96875
-35.13,1767084435.984375
-37.42,1767084436.0
-39.31,1767084436.015625
-39.33,1767084436.03125
-36.23,1767084436.046875
-29.41,1767084436.0625
-19.24,1767084436.078125
-6.86,1767084436.09375
6.15,1767084436.109375
18.34,1767084436.125
28.77,1767084436.140625
37.14,1767084436.15625
43.69,1767084436.171875
48.78,1767084436.1875
52.69,1767084436.203125
55.45,1767084436.21875
56.9,1767084436.234375
56.93,1767084436.25
55.63,1767084436.265625
53.4,1767084436.28125
50.84,1767084436.296875
48.55,1767084436.3125
46.87,1767084436.328125
45.85,1767084436.34375
45.26,1767084436.359375
44.82,1767084436.375
44.35,1767084436.390625
43.86,1767084436.40625
43.4,1767084436.421875
42.88,1767084436.4375
42.04,1767084436.453125
40.45,1767084436.46875
37.73,1767084436.484375
33.74,1767084436.5
28.72,1767084436.515625
23.17,1767084436.53125
17.68,1767084436.546875
12.75,1767084436.5625
8.53,1767084436.578125
4.91,1767084436.59375
1.47,1767084436.609375
-2.27,1767084436.625
-6.77,1767084436.640625
-12.33,1767084436.65625
-19.01,1767084436.671875
-26.65,1767084436.6875
-34.8,1767084436.703125
-42.72,1767084436.71875
-49.39,1767084436.734375
-53.61,1767084436.75
-54.31,1767084436.765625
-50.91,1767084436.78125
-43.54,1767084436.796875
-33.09,1767084436.8125
-20.99,1767084436.828125
-8.78,1767084436.84375
2.33,1767084436.859375
11.76,1767084436.875
19.45,1767084436.890625
25.69,1767084436.90625
30.78,1767084436.921875
34.85,1767084436.9375
37.83,1767084436.953125
39.58,1767084436.96875
40.11,1767084436.984375
39.67,1767084437.0
38.75,1767084437.015625
37.94,1767084437.03125
37.79,1767084437.046875
38.64,1767084437.0625
40.58,1767084437.078125
43.55,1767084437.09375
47.33,1767084437.109375
51.71,1767084437.125
56.4,1767084437.140625
61.06,1767084437.15625
65.3,1767084437.171875
68.7,1767084437.1875
71.01,1767084437.203125
72.19,1767084437.21875
72.47,1767084437.234375
72.21,1767084437.25
71.75,1767084437.265625
71.19,1767084437.28125
70.39,1767084437.296875
69.08,1767084437.3125
67.0,1767084437.328125
64.08,1767084437.34375
60.45,1767084437.359375
56.38,1767084437.375
52.22,1767084437.390625
48.27,1767084437.40625
44.77,1767084437.421875
41.85,1767084437.4375
39.56,1767084437.453125
37.82,1767084437.46875
36.45,1767084437.484375
35.11,1767084437.5
33.34,1767084437.515625
30.38,1767084437.53125
25.12,1767084437.546875
16.23,1767084437.5625
2.38,1767084437.578125
-17.13,1767084437.59375
-41.86,1767084437.609375
-70.07,1767084437.625
-98.97,1767084437.640625
-125.4,1767084437.65625
-146.67,1767084437.671875
-161.14,1767084437.6875
-168.36,1767084437.703125
-168.85,1767084437.71875
-163.63,1767084437.734375
-153.88,1767084437.75
-140.73,1767084437.765625
-125.36,1767084437.78125
-108.98,1767084437.796875
-92.79,1767084437.8125
-77.79,1767084437.828125
-64.61,1767084437.84375
-53.45,1767084437.859375
-44.07,1767084437.875
-36.0,1767084437.890625
-28.78,1767084437.90625
-22.07,1767084437.921875
-15.74,1767084437.9375
-9.75,1767084437.953125
-4.1,1767084437.96875
1.26,1767084437.984375
6.35,1767084438.0
11.08,1767084438.015625
15.17,1767084438.03125
18.26,1767084438.046875
20.06,1767084438.0625
20.49,1767084438.078125
19.79,1767084438.09375
18.4,1767084438.109375
16.74,1767084438.125
15.05,1767084438.140625
13.28,1767084438.15625
11.25,1767084438.171875
8.78,1767084438.1875
5.91,1767084438.203125
2.94,1767084438.21875
0.31,1767084438.234375
-1.65,1767084438.25
-2.92,1767084438.265625
-3.91,1767084438.28125
-5.3,1767084438.296875
-7.83,1767084438.3125
-11.92,1767084438.328125
-17.64,1767084438.34375
-24.64,1767084438.359375
-32.27,1767084438.375
-39.8,1767084438.390625
-46.38,1767084438.40625
-51.16,1767084438.421875
-53.27,1767084438.4375
-52.05,1767084438.453125
-47.29,1767084438.46875
-39.4,1767084438.484375
-29.39,1767084438.5
-18.52,1767084438.515625
-7.91,1767084438.53125
1.8,1767084438.546875
10.49,1767084438.5625
18.38,1767084438.578125
25.66,1767084438.59375
32.26,1767084438.609375
37.83,1767084438.625
41.92,1767084438.640625
44.2,1767084438.65625
44.59,1767084438.671875
43.29,1767084438.6875
40.71,1767084438.703125
37.22,1767084438.71875
33.2,1767084438.734375
28.91,1767084438.75
24.64,1767084438.765625
20.67,1767084438.78125
17.3,1767084438.796875
14.85,1767084438.8125
13.52,1767084438.828125
13.35,1767084438.84375
14.1,1767084438.859375
15.35,1767084438.875
16.53,1767084438.890625
17.13,1767084438.90625
16.82,1767084438.921875
15.53,1767084438.9375
13.45,1767084438.953125
10.91,1767084438.96875
8.25,1767084438.984375
5.66,1767084439.0
3.14,1767084439.015625
0.55,1767084439.03125
-2.32,1767084439.046875
-5.7,1767084439.0625
-9.7,1767084439.078125
-14.34,1767084439.09375
-19.49,1767084439.109375
-24.89,1767084439.125
-29.97,1767084439.140625
-33.95,1767084439.15625
-35.93,1767084439.171875
-35.07,1767084439.1875
-30.93,1767084439.203125
-23.67,1767084439.21875
-14.02,1767084439.234375
-3.13,1767084439.25
7.77,1767084439.265625
17.65,1767084439.28125
25.82,1767084439.296875
31.93,1767084439.3125
35.91,1767084439.328125
37.9,1767084439.34375
38.32,1767084439.359375
37.86,1767084439.375
37.34,1767084439.390625
37.53,1767084439.40625
38.91,1767084439.421875
41.38,1767084439.4375
44.43,1767084439.453125
47.32,1767084439.46875
49.47,1767084439.484375
50.74,1767084439.5
51.6,1767084439.515625
52.86,1767084439.53125
55.31,1767084439.546875
59.32,1767084439.5625
64.66,1767084439.578125
70.51,1767084439.59375
75.86,1767084439.609375
79.76,1767084439.625
81.7,1767084439.640625
81.64,1767084439.65625
79.94,1767084439.671875
77.24,1767084439.6875
74.25,1767084439.703125
71.51,1767084439.71875
69.22,1767084439.734375
67.13,1767084439.75
64.6,1767084439.765625
60.82,1767084439.78125
55.15,1767084439.796875
47.55,1767084439.8125
38.68,1767084439.828125
29.77,1767084439.84375
22.16,1767084439.859375
16.64,1767084439.875
13.13,1767084439.890625
10.67,1767084439.90625
7.79,1767084439.921875
3.11,1767084439.9375
-4.23,1767084439.953125
-14.27,1767084439.96875
-26.4,1767084439.984375
-39.62,1767084440.0
-52.96,1767084440.015625
-65.62,1767084440.03125
-77.08,1767084440.046875
-86.96,1767084440.0625
-95.0,1767084440.078125
-100.92,1767084440.09375
-104.51,1767084440.109375
-105.7,1767084440.125
-104.66,1767084440.140625
-101.79,1767084440.15625
-97.68,1767084440.171875
-93.01,1767084440.1875
-88.34,1767084440.203125
-83.94,1767084440.21875
-79.81,1767084440.234375
-75.72,1767084440.25
-71.48,1767084440.265625
-67.08,1767084440.28125
-62.85,1767084440.296875
-59.37,1767084440.3125
-57.21,1767084440.328125
-56.71,1767084440.34375
-57.82,1767084440.359375
-60.2,1767084440.375
-63.41,1767084440.390625
-67.2,1767084440.40625
-71.54,1767084440.421875
-76.52,1767084440.4375
-81.99,1767084440.453125
-87.38,1767084440.46875
-91.58,1767084440.484375
-93.3,1767084440.5
-91.49,1767084440.515625
-85.87,1767084440.53125
-77.05,1767084440.546875
-66.3,1767084440.5625
-55.04,1767084440.578125
-44.29,1767084440.59375
-34.37,1767084440.609375
-25.05,1767084440.625
-15.91,1767084440.640625
-6.85,1767084440.65625
1.77,1767084440.671875
9.21,1767084440.6875
14.82,1767084440.703125
18.37,1767084440.71875
20.29,1767084440.734375
21.46,1767084440.75
22.81,1767084440.765625
24.98,1767084440.78125
28.04,1767084440.796875
31.56,1767084440.8125
34.88,1767084440.828125
37.42,1767084440.84375
38.9,1767084440.859375
39.38,1767084440.875
39.06,1767084440.890625
38.19,1767084440.90625
36.84,1767084440.921875
34.95,1767084440.9375
32.42,1767084440.953125
29.24,1767084440.96875
25.54,1767084440.984375
21.58,1767084441.0
17.63,1767084441.015625
13.79,1767084441.03125
9.96,1767084441.046875
5.83,1767084441.0625
1.05,1767084441.078125
-4.65,1767084441.09375
-11.32,1767084441.109375
-18.71,1767084441.125
-26.2,1767084441.140625
-32.87,1767084441.15625
-37.63,1767084441.171875
-39.49,1767084441.1875
-37.82,1767084441.203125
-32.6,1767084441.21875
-24.5,1767084441.234375
-14.67,1767084441.25
-4.42,1767084441.265625
5.2,1767084441.28125
13.62,1767084441.296875
20.75,1767084441.3125
26.79,1767084441.328125
31.92,1767084441.34375
36.12,1767084441.359375
39.15,1767084441.375
40.74,1767084441.390625
40.82,1767084441.40625
39.7,1767084441.421875
38.0,1767084441.4375
36.49,1767084441.453125
35.75,1767084441.46875
35.9,1767084441.484375
36.62,1767084441.5
37.3,1767084441.515625
37.45,1767084441.53125
36.89,1767084441.546875
35.88,1767084441.5625
34.85,1767084441.578125
34.12,1767084441.59375
33.68,1767084441.609375
33.17,1767084441.625
32.09,1767084441.640625
30.11,1767084441.65625
27.2,1767084441.671875
23.67,1767084441.6875
19.96,1767084441.703125
16.41,1767084441.71875
13.12,1767084441.734375
9.99,1767084441.75
6.77,1767084441.765625
3.24,1767084441.78125
-0.78,1767084441.796875
-5.38,1767084441.8125
-10.62,1767084441.828125
-16.47,1767084441.84375
-22.84,1767084441.859375
-29.41,1767084441.875
-35.67,1767084441.890625
-40.9,1767084441.90625
-44.34,1767084441.921875
-45.36,1767084441.9375
-43.61,1767084441.953125
-39.17,1767084441.96875
-32.48,1767084441.984375
-24.31,1767084442.0
-15.58,1767084442.015625
-7.21,1767084442.03125
0.07,1767084442.046875
5.81,1767084442.0625
9.87,1767084442.078125
12.43,1767084442.09375
13.92,1767084442.109375
14.88,1767084442.125
15.85,1767084442.140625
17.34,1767084442.15625
19.67,1767084442.171875
22.95,1767084442.1875
26.98,1767084442.203125
31.31,1767084442.21875
35.32,1767084442.234375
38.37,1767084442.25
40.02,1767084442.265625
40.1,1767084442.28125
38.81,1767084442.296875
36.53,1767084442.3125
33.74,1767084442.328125
30.76,1767084442.34375
27.78,1767084442.359375
24.82,1767084442.375
21.8,1767084442.390625
18.72,1767084442.40625
15.55,1767084442.421875
12.25,1767084442.4375
8.7,1767084442.453125
4.75,1767084442.46875
0.25,1767084442.484375
-4.79,1767084442.5
-10.18,1767084442.515625
-15.57,1767084442.53125
-20.56,1767084442.546875
-24.88,1767084442.5625
-28.5,1767084442.578125
-31.61,1767084442.59375
-34.56,1767084442.609375
-37.68,1767084442.625
-41.22,1767084442.640625
-45.16,1767084442.65625
-49.19,1767084442.671875
-52.64,1767084442.6875
-54.53,1767084442.703125
-53.8,1767084442.71875
-49.58,1767084442.734375
-41.52,1767084442.75
-30.05,1767084442.765625
-16.26,1767084442.78125
-1.67,1767084442.796875
12.27,1767084442.8125
24.53,1767084442.828125
34.71,1767084442.84375
42.95,1767084442.859375
49.62,1767084442.875
55.03,1767084442.890625
59.16,1767084442.90625
61.77,1767084442.921875
62.57,1767084442.9375
61.56,1767084442.953125
59.16,1767084442.96875
56.17,1767084442.984375
53.43,1767084443.0
51.5,1767084443.015625
50.42,1767084443.03125
49.75,1767084443.046875
48.86,1767084443.0625
47.28,1767084443.078125
44.88,1767084443.09375
41.81,1767084443.109375
38.29,1767084443.125
34.39,1767084443.140625
29.99,1767084443.15625
24.88,1767084443.171875
18.98,1767084443.1875
12.49,1767084443.203125
5.79,1767084443.21875
-0.72,1767084443.234375
-6.76,1767084443.25
-12.29,1767084443.265625
-17.46,1767084443.28125
-22.52,1767084443.296875
-27.71,1767084443.3125
-33.22,1767084443.328125
-39.17,1767084443.34375
-45.65,1767084443.359375
-52.7,1767084443.375
-60.23,1767084443.390625
-68.0,1767084443.40625
-75.53,1767084443.421875
-82.1,1767084443.4375
-86.78,1767084443.453125
-88.59,1767084443.46875
-86.68,1767084443.484375
-80.62,1767084443.5
-70.62,1767084443.515625
-57.51,1767084443.53125
-42.66,1767084443.546875
-27.6,1767084443.5625
-13.66,1767084443.578125
-1.77,1767084443.59375
7.66,1767084443.609375
14.62,1767084443.625
19.32,1767084443.640625
22.04,1767084443.65625
23.11,1767084443.671875
22.95,1767084443.6875
22.1,1767084443.703125
21.2,1767084443.71875
20.79,1767084443.734375
21.15,1767084443.75
22.15,1767084443.765625
23.31,1767084443.78125
24.04,1767084443.796875
23.87,1767084443.8125
22.62,1767084443.828125
20.45,1767084443.84375
17.71,1767084443.859375
14.8,1767084443.875
11.98,1767084443.890625
9.31,1767084443.90625
6.66,1767084443.921875
3.83,1767084443.9375
0.61,1767084443.953125
-3.06,1767084443.96875
-7.05,1767084443.984375
-11.02,1767084444.0
-14.61,1767084444.015625
-17.52,1767084444.03125
-19.76,1767084444.046875
-21.58,1767084444.0625
-23.46,1767084444.078125
-25.88,1767084444.09375
-29.17,1767084444.109375
-33.46,1767084444.125
-38.57,1767084444.140625
-44.0,1767084444.15625
-48.92,1767084444.171875
-52.26,1767084444.1875
-52.93,1767084444.203125
-50.08,1767084444.21875
-43.54,1767084444.234375
-33.86,1767084444.25
-22.29,1767084444.265625
-10.38,1767084444.28125
0.45,1767084444.296875
9.31,1767084444.3125
15.88,1767084444.328125
20.37,1767084444.34375
23.13,1767084444.359375
24.52,1767084444.375
24.8,1767084444.390625
24.21,1767084444.40625
23.1,1767084444.421875
21.9,1767084444.4375
21.11,1767084444.453125
21.11,1767084444.46875
22.04,1767084444.484375
23.77,1767084444.5
25.95,1767084444.515625
28.12,1767084444.53125
29.89,1767084444.546875
31.0,1767084444.5625
31.34,1767084444.578125
30.95,1767084444.59375
29.92,1767084444.609375
28.44,1767084444.625
26.68,1767084444.640625
24.83,1767084444.65625
23.09,1767084444.671875
21.59,1767084444.6875
20.42,1767084444.703125
19.46,1767084444.71875
18.4,1767084444.734375
16.77,1767084444.75
13.98,1767084444.765625
9.64,1767084444.78125
3.71,1767084444.796875
-3.28,1767084444.8125
-10.3,1767084444.828125
-15.99,1767084444.84375
-19.06,1767084444.859375
-18.67,1767084444.875
-14.69,1767084444.890625
-7.72,1767084444.90625
1.04,1767084444.921875
10.14,1767084444.9375
18.29,1767084444.953125
24.6,1767084444.96875
28.75,1767084444.984375
30.88,1767084445.0
31.36,1767084445.015625
30.59,1767084445.03125
