PPG GREEN,time
2192649.0,1767084367.694
2192665.0,1767084367.734
2192602.0,1767084367.775
2192580.0,1767084367.814
2192213.0,1767084367.854
2191592.0,1767084367.896
2191294.0,1767084367.934
2191318.0,1767084367.974
2191510.0,1767084368.015
2191865.0,1767084368.055
2192148.0,1767084368.095
2192461.0,1767084368.136
2192829.0,1767084368.175
2193108.0,1767084368.215
2192670.0,1767084368.256
2191065.0,1767084368.297
2188995.0,1767084368.336
2187669.0,1767084368.376
2186382.0,1767084368.413
2185861.0,1767084368.45
2185914.0,1767084368.484
2186289.0,1767084368.522
2187345.0,1767084368.561
2188554.0,1767084368.601
2190132.0,1767084368.64
2192653.0,1767084368.681
2195128.0,1767084368.721
2196531.0,1767084368.76
2196910.0,1767084368.801
2195551.0,1767084368.837
2194299.0,1767084368.877
2192001.0,1767084368.916
2188025.0,1767084368.957
2182633.0,1767084368.996
2176801.0,1767084369.037
2171419.0,1767084369.078
2167265.0,1767084369.117
2164153.0,1767084369.157
2162207.0,1767084369.198
2161657.0,1767084369.237
2161118.0,1767084369.278
2160785.0,1767084369.318
2160030.0,1767084369.357
2159467.0,1767084369.397
2158466.0,1767084369.439
2157659.0,1767084369.478
2156133.0,1767084369.518
2154444.0,1767084369.56
2152494.0,1767084369.599
2150234.0,1767084369.639
2146857.0,1767084369.682
2142225.0,1767084369.72
2137444.0,1767084369.76
2133371.0,1767084369.802
2130248.0,1767084369.841
2128114.0,1767084369.882
2126180.0,1767084369.922
2124829.0,1767084369.961
2124277.0,1767084370.002
2124678.0,1767084370.042
2124921.0,1767084370.073
2126185.0,1767084370.112
2126909.0,1767084370.153
2128202.0,1767084370.192
2129296.0,1767084370.232
2130775.0,1767084370.274
2132021.0,1767084370.313
2132623.0,1767084370.353
2131996.0,1767084370.394
2129978.0,1767084370.433
2128318.0,1767084370.474
2127043.0,1767084370.514
2126511.0,1767084370.553
2126376.0,1767084370.593
2126394.0,1767084370.634
2125985.0,1767084370.674
2125539.0,1767084370.714
2125332.0,1767084370.75
2125666.0,1767084370.79
2126395.0,1767084370.822
2126817.0,1767084370.864
2127524.0,1767084370.9
2127963.0,1767084370.94
2128771.0,1767084370.982
2128904.0,1767084371.021
2127217.0,1767084371.062
2125192.0,1767084371.103
2123618.0,1767084371.142
2122560.0,1767084371.182
2122064.0,1767084371.223
2121804.0,1767084371.261
2121125.0,1767084371.301
2120355.0,1767084371.342
2119175.0,1767084371.381
2118737.0,1767084371.421
2118392.0,1767084371.463
2118429.0,1767084371.501
2118514.0,1767084371.541
2118771.0,1767084371.582
2119192.0,1767084371.621
2119594.0,1767084371.662
2119325.0,1767084371.703
2117392.0,1767084371.742
2115401.0,1767084371.782
2114053.0,1767084371.823
2113097.0,1767084371.863
2112530.0,1767084371.902
2112339.0,1767084371.943
2112116.0,1767084371.982
2112201.0,1767084372.022
2112494.0,1767084372.064
2113259.0,1767084372.103
2114347.0,1767084372.141
2115867.0,1767084372.182
2117109.0,1767084372.221
2118674.0,1767084372.262
2120823.0,1767084372.303
2120540.0,1767084372.342
2118932.0,1767084372.382
2116912.0,1767084372.424
2115311.0,1767084372.464
2113750.0,1767084372.503
2113750.0,1767084372.538
2111022.0,1767084372.577
2107399.0,1767084372.617
2102225.0,1767084372.659
2096339.0,1767084372.698
2090228.0,1767084372.738
2085269.0,1767084372.779
2080640.0,1767084372.818
2077219.0,1767084372.859
2073885.0,1767084372.899
2071740.0,1767084372.938
2070506.0,1767084372.978
2067853.0,1767084373.019
2063008.0,1767084373.059
2057326.0,1767084373.099
2052250.0,1767084373.14
2048780.0,1767084373.179
2047251.0,1767084373.22
2048402.0,1767084373.26
2049749.0,1767084373.298
2051069.0,1767084373.337
2053137.0,1767084373.375
2054741.0,1767084373.414
2055940.0,1767084373.448
2056722.0,1767084373.486
2057175.0,1767084373.523
2056910.0,1767084373.563
2055899.0,1767084373.605
2053270.0,1767084373.644
2050922.0,1767084373.684
2048830.0,1767084373.725
2047280.0,1767084373.764
2046160.0,1767084373.804
2044538.0,1767084373.842
2043253.0,1767084373.88
2043445.0,1767084373.921
2043897.0,1767084373.962
2044186.0,1767084374.001
2044707.0,1767084374.041
2045009.0,1767084374.082
2045460.0,1767084374.121
2046219.0,1767084374.161
2046638.0,1767084374.202
2047149.0,1767084374.242
2047635.0,1767084374.281
2048388.0,1767084374.322
2049382.0,1767084374.361
2050303.0,1767084374.401
2050533.0,1767084374.443
2050882.0,1767084374.482
2051579.0,1767084374.522
2050726.0,1767084374.563
2048687.0,1767084374.602
2046140.0,1767084374.643
2044111.0,1767084374.683
2042645.0,1767084374.722
2041690.0,1767084374.765
2041191.0,1767084374.846
2041296.0,1767084374.806
2041486.0,1767084374.885
2042167.0,1767084374.926
2043759.0,1767084374.965
2044594.0,1767084375.005
2046051.0,1767084375.047
2047604.0,1767084375.086
2049438.0,1767084375.126
2051011.0,1767084375.167
2052164.0,1767084375.206
2053464.0,1767084375.247
2054321.0,1767084375.287
2055205.0,1767084375.326
2055174.0,1767084375.366
2054068.0,1767084375.407
2052748.0,1767084375.447
2051614.0,1767084375.486
2050876.0,1767084375.527
2050482.0,1767084375.566
2050162.0,1767084375.648
2051201.0,1767084375.727
2052265.0,1767084375.768
2050652.0,1767084375.687
2053876.0,1767084375.807
2055611.0,1767084375.848
2057252.0,1767084375.888
2050416.0,1767084375.607
2058744.0,1767084375.927
2060183.0,1767084375.967
2062194.0,1767084376.008
2064415.0,1767084376.048
2066892.0,1767084376.087
2069131.0,1767084376.129
2069246.0,1767084376.168
2068296.0,1767084376.208
2067569.0,1767084376.249
2066850.0,1767084376.288
2066341.0,1767084376.328
2066277.0,1767084376.369
2066510.0,1767084376.408
2066470.0,1767084376.449
2066295.0,1767084376.489
2066444.0,1767084376.528
2066270.0,1767084376.568
2066531.0,1767084376.61
2066586.0,1767084376.649
2067146.0,1767084376.689
2067632.0,1767084376.73
2068115.0,1767084376.769
2068683.0,1767084376.809
2068673.0,1767084376.851
2069202.0,1767084376.889
2068908.0,1767084376.929
2067008.0,1767084376.97
2065300.0,1767084377.009
2063563.0,1767084377.05
2060326.0,1767084377.17
2061396.0,1767084377.13
2059759.0,1767084377.211
2058765.0,1767084377.251
2057772.0,1767084377.29
2062153.0,1767084377.091
2061299.0,1767084377.37
2057921.0,1767084377.331
2066730.0,1767084377.41
2072524.0,1767084377.452
2077872.0,1767084377.49
2086635.0,1767084377.572
2089366.0,1767084377.611
2090311.0,1767084377.651
2089655.0,1767084377.692
2087333.0,1767084377.731
2085342.0,1767084377.771
2082521.0,1767084377.812
2080261.0,1767084377.852
2078236.0,1767084377.891
2076588.0,1767084377.932
2074477.0,1767084377.971
2082223.0,1767084377.531
2069857.0,1767084378.053
2067552.0,1767084378.132
2071958.0,1767084378.011
2068594.0,1767084378.092
2068434.0,1767084378.212
2069198.0,1767084378.253
2067849.0,1767084378.173
2070658.0,1767084378.332
2069826.0,1767084378.293
2071556.0,1767084378.372
2071601.0,1767084378.413
2070723.0,1767084378.453
2069454.0,1767084378.492
2068428.0,1767084378.534
2067620.0,1767084378.573
2067735.0,1767084378.613
2068216.0,1767084378.654
2068983.0,1767084378.693
2069569.0,1767084378.733
2070448.0,1767084378.774
2071422.0,1767084378.813
2072997.0,1767084378.854
2074310.0,1767084378.894
2075915.0,1767084378.933
2077197.0,1767084378.973
2078716.0,1767084379.014
2079998.0,1767084379.054
2081373.0,1767084379.094
2082443.0,1767084379.135
2082444.0,1767084379.174
2081762.0,1767084379.214
2081510.0,1767084379.256
2081495.0,1767084379.294
2081707.0,1767084379.334
2081700.0,1767084379.375
2081986.0,1767084379.414
2081674.0,1767084379.455
2081453.0,1767084379.495
2081853.0,1767084379.534
2082350.0,1767084379.574
2082851.0,1767084379.616
2083087.0,1767084379.655
2083573.0,1767084379.695
2084047.0,1767084379.736
2084439.0,1767084379.775
2085014.0,1767084379.815
2085510.0,1767084379.857
2085516.0,1767084379.895
2084620.0,1767084379.935
2083977.0,1767084379.976
2083182.0,1767084380.008
2083023.0,1767084380.049
2084643.0,1767084380.09
2086018.0,1767084380.129
2087028.0,1767084380.169
2088722.0,1767084380.21
2089039.0,1767084380.249
2088369.0,1767084380.289
2087895.0,1767084380.33
2086523.0,1767084380.369
2085229.0,1767084380.409
2083604.0,1767084380.451
2081796.0,1767084380.489
2078971.0,1767084380.529
2074650.0,1767084380.57
2071204.0,1767084380.609
2067754.0,1767084380.65
2062261.0,1767084380.69
2056187.0,1767084380.729
2053284.0,1767084380.77
2052106.0,1767084380.812
2053074.0,1767084380.851
2052470.0,1767084380.891
2051834.0,1767084380.932
2051189.0,1767084380.971
2051884.0,1767084381.012
2053823.0,1767084381.054
2055887.0,1767084381.092
2057720.0,1767084381.133
2060212.0,1767084381.172
2063601.0,1767084381.21
2066417.0,1767084381.244
2068920.0,1767084381.284
2070146.0,1767084381.324
2070212.0,1767084381.364
2070314.0,1767084381.405
2070895.0,1767084381.445
2071129.0,1767084381.484
2071928.0,1767084381.525
2072484.0,1767084381.564
2072974.0,1767084381.604
2073051.0,1767084381.646
2073582.0,1767084381.684
2074481.0,1767084381.725
2075390.0,1767084381.766
2077184.0,1767084381.805
2078817.0,1767084381.846
2079852.0,1767084381.886
2081107.0,1767084381.922
2081924.0,1767084381.962
2081737.0,1767084381.997
2080541.0,1767084382.037
2079663.0,1767084382.073
2078999.0,1767084382.112
2078707.0,1767084382.151
2079097.0,1767084382.191
2079389.0,1767084382.233
2079866.0,1767084382.272
2080205.0,1767084382.312
2080665.0,1767084382.353
2081443.0,1767084382.392
2082010.0,1767084382.433
2082010.0,1767084382.467
2082907.0,1767084382.506
2083709.0,1767084382.546
2084563.0,1767084382.587
2085447.0,1767084382.627
2086023.0,1767084382.666
2085609.0,1767084382.708
2084411.0,1767084382.747
2083357.0,1767084382.787
2082544.0,1767084382.829
2081999.0,1767084382.867
2082040.0,1767084382.907
2082080.0,1767084382.948
2082476.0,1767084382.987
2082741.0,1767084383.028
2083620.0,1767084383.068
2084504.0,1767084383.107
2085202.0,1767084383.148
2085893.0,1767084383.188
2085472.0,1767084383.228
2086165.0,1767084383.265
2085295.0,1767084383.3
2081863.0,1767084383.334
2077347.0,1767084383.372
2073582.0,1767084383.414
2071186.0,1767084383.453
2066193.0,1767084383.493
2060449.0,1767084383.535
2055702.0,1767084383.574
2055098.0,1767084383.615
2058956.0,1767084383.655
2062696.0,1767084383.694
2066182.0,1767084383.734
2067731.0,1767084383.775
2069538.0,1767084383.815
2070544.0,1767084383.855
2071838.0,1767084383.896
2073481.0,1767084383.935
2075638.0,1767084383.975
2077194.0,1767084384.017
2078079.0,1767084384.055
2079484.0,1767084384.095
2080746.0,1767084384.136
2082158.0,1767084384.175
2083121.0,1767084384.216
2082477.0,1767084384.257
2081520.0,1767084384.296
2080726.0,1767084384.336
2079815.0,1767084384.377
2079300.0,1767084384.413
2079481.0,1767084384.453
2079577.0,1767084384.494
2079735.0,1767084384.533
2080066.0,1767084384.574
2080630.0,1767084384.616
2081367.0,1767084384.654
2081901.0,1767084384.694
2082810.0,1767084384.736
2083757.0,1767084384.775
2084945.0,1767084384.816
2086007.0,1767084384.857
2087159.0,1767084384.892
2087970.0,1767084384.923
2088218.0,1767084384.964
2086790.0,1767084385.004
2085502.0,1767084385.043
2084538.0,1767084385.084
2083646.0,1767084385.123
2083366.0,1767084385.163
2083325.0,1767084385.205
2083339.0,1767084385.244
2083380.0,1767084385.284
2083581.0,1767084385.325
2084572.0,1767084385.364
2086376.0,1767084385.405
2087637.0,1767084385.445
2086758.0,1767084385.484
2086998.0,1767084385.524
2089481.0,1767084385.565
2092918.0,1767084385.596
2093149.0,1767084385.633
2089263.0,1767084385.674
2083903.0,1767084385.713
2078835.0,1767084385.754
2074988.0,1767084385.796
2069053.0,1767084385.834
2063731.0,1767084385.875
2060275.0,1767084385.916
2058949.0,1767084385.955
2059648.0,1767084385.994
2060371.0,1767084386.035
2061171.0,1767084386.074
2062336.0,1767084386.116
2063573.0,1767084386.157
2064927.0,1767084386.196
2066334.0,1767084386.236
2067921.0,1767084386.277
2068621.0,1767084386.316
2069737.0,1767084386.356
2070463.0,1767084386.398
2069872.0,1767084386.436
2068913.0,1767084386.476
2067982.0,1767084386.517
2067311.0,1767084386.556
2066955.0,1767084386.597
2067114.0,1767084386.637
2067206.0,1767084386.676
2067047.0,1767084386.715
2067519.0,1767084386.756
2067893.0,1767084386.795
2068031.0,1767084386.835
2068543.0,1767084386.876
2068968.0,1767084386.915
2069244.0,1767084386.955
2069334.0,1767084386.997
2069580.0,1767084387.035
2069075.0,1767084387.075
2067615.0,1767084387.116
2065954.0,1767084387.155
2064877.0,1767084387.195
2064121.0,1767084387.233
2063634.0,1767084387.272
2063460.0,1767084387.313
2063211.0,1767084387.354
2063211.0,1767084387.389
2063123.0,1767084387.428
2062830.0,1767084387.469
2063440.0,1767084387.548
2063434.0,1767084387.59
2064010.0,1767084387.628
2064185.0,1767084387.669
2062985.0,1767084387.508
2065073.0,1767084387.71
2066032.0,1767084387.749
2066522.0,1767084387.79
2065871.0,1767084387.83
2065329.0,1767084387.869
2064766.0,1767084387.909
2063936.0,1767084387.95
2062733.0,1767084387.99
2060952.0,1767084388.03
2058859.0,1767084388.071
2053113.0,1767084388.151
2049885.0,1767084388.193
2055986.0,1767084388.111
2047622.0,1767084388.232
2046394.0,1767084388.273
2047194.0,1767084388.314
2048130.0,1767084388.353
2049297.0,1767084388.394
2051187.0,1767084388.434
2052595.0,1767084388.473
2052757.0,1767084388.514
2052675.0,1767084388.555
2070829.0,1767084388.949
2073533.0,1767084388.99
2076237.0,1767084389.03
2082019.0,1767084389.109
2061030.0,1767084388.79
2064122.0,1767084388.828
2066770.0,1767084388.869
2068594.0,1767084388.91
2084469.0,1767084389.15
2079116.0,1767084389.069
2085952.0,1767084389.19
2086142.0,1767084389.229
2086073.0,1767084389.27
2086091.0,1767084389.302
2055412.0,1767084388.708
2053512.0,1767084388.628
2058021.0,1767084388.748
2054785.0,1767084388.669
2053361.0,1767084388.588
2085665.0,1767084389.415
2085944.0,1767084389.376
2085339.0,1767084389.455
2086011.0,1767084389.336
2085485.0,1767084389.495
2085960.0,1767084389.535
2085950.0,1767084389.576
2086899.0,1767084389.656
2087953.0,1767084389.738
2086599.0,1767084389.617
2087421.0,1767084389.696
2088747.0,1767084389.775
2088830.0,1767084389.814
2088028.0,1767084389.853
2086551.0,1767084389.892
2085547.0,1767084389.932
2084545.0,1767084389.974
2083742.0,1767084390.012
2083375.0,1767084390.052
2083098.0,1767084390.094
2083057.0,1767084390.133
2082131.0,1767084390.173
2079981.0,1767084390.214
2078778.0,1767084390.253
2078494.0,1767084390.293
2078672.0,1767084390.334
2078881.0,1767084390.374
2079274.0,1767084390.413
2081181.0,1767084390.454
2081826.0,1767084390.493
2080148.0,1767084390.534
2077557.0,1767084390.576
2075314.0,1767084390.615
2072920.0,1767084390.655
2071157.0,1767084390.697
2069686.0,1767084390.736
2067810.0,1767084390.777
2064727.0,1767084390.817
2062395.0,1767084390.856
2060809.0,1767084390.897
2059313.0,1767084390.938
2058863.0,1767084390.978
2058906.0,1767084391.015
2060228.0,1767084391.047
2062334.0,1767084391.086
2064509.0,1767084391.127
2066943.0,1767084391.168
2068294.0,1767084391.207
2068883.0,1767084391.247
2069639.0,1767084391.288
2069906.0,1767084391.327
2070956.0,1767084391.368
2071668.0,1767084391.408
2070687.0,1767084391.447
2068773.0,1767084391.488
2067045.0,1767084391.529
2066199.0,1767084391.568
2066633.0,1767084391.608
2068156.0,1767084391.649
2069990.0,1767084391.688
2072455.0,1767084391.728
2074053.0,1767084391.77
2075712.0,1767084391.808
2077437.0,1767084391.849
2078671.0,1767084391.89
2078617.0,1767084391.929
2077970.0,1767084391.97
2077983.0,1767084392.01
2078316.0,1767084392.049
2078920.0,1767084392.089
2079702.0,1767084392.13
2080236.0,1767084392.17
2080849.0,1767084392.209
2081652.0,1767084392.251
2082673.0,1767084392.29
2083677.0,1767084392.33
2084710.0,1767084392.372
2085637.0,1767084392.41
2086607.0,1767084392.45
2087740.0,1767084392.491
2088685.0,1767084392.53
2089842.0,1767084392.571
2090542.0,1767084392.611
2090032.0,1767084392.65
2089485.0,1767084392.691
2088758.0,1767084392.732
2088241.0,1767084392.771
2088392.0,1767084392.81
2088766.0,1767084392.846
2089094.0,1767084392.885
2089781.0,1767084392.917
2090350.0,1767084392.959
2090689.0,1767084392.996
2091448.0,1767084393.036
2092257.0,1767084393.077
2092782.0,1767084393.117
2093064.0,1767084393.158
2092700.0,1767084393.198
2092180.0,1767084393.237
2091743.0,1767084393.278
2091322.0,1767084393.316
2090515.0,1767084393.355
2089890.0,1767084393.395
2089617.0,1767084393.436
2089505.0,1767084393.475
2089702.0,1767084393.515
2090509.0,1767084393.557
2091390.0,1767084393.595
2092174.0,1767084393.635
2092754.0,1767084393.676
2094031.0,1767084393.715
2094810.0,1767084393.756
2095053.0,1767084393.797
2095125.0,1767084393.836
2095042.0,1767084393.876
2094815.0,1767084393.917
2093978.0,1767084393.956
2093802.0,1767084393.996
2093496.0,1767084394.037
2092859.0,1767084394.076
2090919.0,1767084394.117
2088877.0,1767084394.159
2087315.0,1767084394.197
2086209.0,1767084394.238
2085821.0,1767084394.279
2085501.0,1767084394.318
2085447.0,1767084394.359
2086085.0,1767084394.4
2087145.0,1767084394.437
2087599.0,1767084394.477
2088444.0,1767084394.518
2088444.0,1767084394.55
2089610.0,1767084394.589
2090368.0,1767084394.631
2091312.0,1767084394.67
2092536.0,1767084394.71
2093542.0,1767084394.752
2094140.0,1767084394.79
2094606.0,1767084394.83
2094323.0,1767084394.871
2093708.0,1767084394.91
2092655.0,1767084394.951
2091693.0,1767084394.991
2091278.0,1767084395.03
2091537.0,1767084395.071
2092737.0,1767084395.112
2096252.0,1767084395.151
2099379.0,1767084395.191
2102571.0,1767084395.233
2105281.0,1767084395.272
2105846.0,1767084395.309
2104744.0,1767084395.343
2102489.0,1767084395.381
2099116.0,1767084395.42
2095249.0,1767084395.459
2092072.0,1767084395.499
2089810.0,1767084395.54
2088862.0,1767084395.58
2088372.0,1767084395.619
2087410.0,1767084395.659
2085004.0,1767084395.701
2081852.0,1767084395.74
2078862.0,1767084395.777
2075578.0,1767084395.818
2077406.0,1767084395.857
2073546.0,1767084395.897
2070237.0,1767084395.939
2068778.0,1767084395.978
2069775.0,1767084396.018
2071240.0,1767084396.059
2071676.0,1767084396.098
2072633.0,1767084396.139
2075632.0,1767084396.179
2077928.0,1767084396.218
2078739.0,1767084396.258
2078836.0,1767084396.299
2078409.0,1767084396.339
2077960.0,1767084396.378
2077906.0,1767084396.419
2078719.0,1767084396.459
2078836.0,1767084396.5
2079043.0,1767084396.542
2079268.0,1767084396.58
2079625.0,1767084396.62
2080269.0,1767084396.662
2081111.0,1767084396.701
2082023.0,1767084396.74
2082496.0,1767084396.781
2083261.0,1767084396.82
2083922.0,1767084396.86
2084428.0,1767084396.897
2084543.0,1767084396.937
2083411.0,1767084396.976
2082355.0,1767084397.018
2081551.0,1767084397.057
2080641.0,1767084397.097
2080108.0,1767084397.139
2079780.0,1767084397.177
2079496.0,1767084397.217
2079251.0,1767084397.258
2079307.0,1767084397.297
2079612.0,1767084397.338
2079920.0,1767084397.378
2079986.0,1767084397.417
2080527.0,1767084397.457
2080786.0,1767084397.499
2081163.0,1767084397.538
2081889.0,1767084397.577
2082250.0,1767084397.62
2081689.0,1767084397.659
2079475.0,1767084397.699
2073730.0,1767084397.742
2067239.0,1767084397.78
2062531.0,1767084397.82
2059557.0,1767084397.862
2058843.0,1767084397.901
2055963.0,1767084397.942
2052288.0,1767084397.983
2049563.0,1767084398.022
2047098.0,1767084398.06
2046755.0,1767084398.1
2047346.0,1767084398.132
2047067.0,1767084398.172
2046469.0,1767084398.213
2046556.0,1767084398.252
2049298.0,1767084398.292
2050729.0,1767084398.334
2050727.0,1767084398.372
2049999.0,1767084398.412
2047848.0,1767084398.453
2046265.0,1767084398.492
2044705.0,1767084398.533
2043768.0,1767084398.574
2043010.0,1767084398.613
2042858.0,1767084398.689
2042595.0,1767084398.73
2042762.0,1767084398.769
2042698.0,1767084398.809
2042758.0,1767084398.85
2043168.0,1767084398.889
2043388.0,1767084398.929
2043720.0,1767084398.971
2044374.0,1767084399.009
2045388.0,1767084399.049
2045835.0,1767084399.091
2045489.0,1767084399.13
2044924.0,1767084399.169
2045013.0,1767084399.21
2045016.0,1767084399.243
2045257.0,1767084399.278
2046267.0,1767084399.317
2047046.0,1767084399.357
2047871.0,1767084399.396
2049014.0,1767084399.438
2050731.0,1767084399.477
2050731.0,1767084399.513
2052106.0,1767084399.555
2053821.0,1767084399.593
2055226.0,1767084399.633
2056989.0,1767084399.674
2058116.0,1767084399.713
2059484.0,1767084399.754
2060441.0,1767084399.795
2059496.0,1767084399.834
2057903.0,1767084399.874
2056428.0,1767084399.915
2055275.0,1767084399.955
2054020.0,1767084399.994
2054299.0,1767084400.035
2054585.0,1767084400.074
2054902.0,1767084400.114
2055866.0,1767084400.156
2057011.0,1767084400.195
2058622.0,1767084400.236
2060901.0,1767084400.277
2063039.0,1767084400.317
2065843.0,1767084400.357
2068562.0,1767084400.397
2071707.0,1767084400.437
2074306.0,1767084400.477
2075380.0,1767084400.518
2074992.0,1767084400.558
2074858.0,1767084400.598
2074450.0,1767084400.639
2074322.0,1767084400.678
2074983.0,1767084400.71
2075592.0,1767084400.752
2075848.0,1767084400.79
2075169.0,1767084400.83
2075173.0,1767084400.871
2074841.0,1767084400.91
2074942.0,1767084400.951
2075237.0,1767084400.991
2075595.0,1767084401.03
2076092.0,1767084401.071
2076648.0,1767084401.112
2077219.0,1767084401.151
2078082.0,1767084401.191
2077857.0,1767084401.232
2076546.0,1767084401.271
2075092.0,1767084401.311
2074371.0,1767084401.353
2074041.0,1767084401.391
2074272.0,1767084401.432
2075251.0,1767084401.47
2077042.0,1767084401.509
2078598.0,1767084401.543
2079528.0,1767084401.581
2080897.0,1767084401.618
2082052.0,1767084401.658
2083099.0,1767084401.7
2084475.0,1767084401.74
2085728.0,1767084401.779
2087084.0,1767084401.821
2088854.0,1767084401.86
2090543.0,1767084401.9
2091080.0,1767084401.941
2090595.0,1767084401.979
2090053.0,1767084402.019
2089983.0,1767084402.061
2090335.0,1767084402.1
2091055.0,1767084402.14
2091494.0,1767084402.181
2091937.0,1767084402.22
2092267.0,1767084402.26
2092489.0,1767084402.301
2092993.0,1767084402.341
2094470.0,1767084402.38
2095848.0,1767084402.421
2097655.0,1767084402.46
2099544.0,1767084402.5
2101338.0,1767084402.542
2101710.0,1767084402.581
2101558.0,1767084402.621
2101473.0,1767084402.663
2101491.0,1767084402.702
2102110.0,1767084402.741
2102820.0,1767084402.78
2103969.0,1767084402.819
2104512.0,1767084402.859
2105094.0,1767084402.901
2106601.0,1767084402.941
2108436.0,1767084402.98
2109611.0,1767084403.022
2110656.0,1767084403.061
2111624.0,1767084403.099
2112608.0,1767084403.141
2113436.0,1767084403.172
2114405.0,1767084403.212
2114913.0,1767084403.253
2115307.0,1767084403.292
2116279.0,1767084403.333
2117575.0,1767084403.373
2118602.0,1767084403.412
2118953.0,1767084403.452
2119290.0,1767084403.494
2120121.0,1767084403.533
2120981.0,1767084403.573
2121428.0,1767084403.614
2122456.0,1767084403.653
2123316.0,1767084403.693
2124036.0,1767084403.735
2122840.0,1767084403.773
2120088.0,1767084403.813
2117464.0,1767084403.854
2115588.0,1767084403.895
2113690.0,1767084403.936
2112763.0,1767084403.977
2111875.0,1767084404.014
2111140.0,1767084404.054
2109845.0,1767084404.093
2108664.0,1767084404.127
2107825.0,1767084404.162
2106446.0,1767084404.2
2104754.0,1767084404.239
2103552.0,1767084404.279
2103166.0,1767084404.321
2103199.0,1767084404.36
2103199.0,1767084404.394
2103271.0,1767084404.435
2103148.0,1767084404.474
2101912.0,1767084404.515
2099597.0,1767084404.555
2098389.0,1767084404.594
2097147.0,1767084404.634
2096700.0,1767084404.675
2097123.0,1767084404.715
2097552.0,1767084404.755
2097458.0,1767084404.796
2097814.0,1767084404.835
2098108.0,1767084404.875
2098706.0,1767084404.917
2098903.0,1767084404.955
2099638.0,1767084404.995
2100249.0,1767084405.036
2100772.0,1767084405.075
2101500.0,1767084405.117
2102468.0,1767084405.158
2103220.0,1767084405.197
2103695.0,1767084405.236
2103383.0,1767084405.274
2101594.0,1767084405.314
2100173.0,1767084405.349
2099118.0,1767084405.384
2098111.0,1767084405.421
2097511.0,1767084405.461
2096841.0,1767084405.503
2096701.0,1767084405.541
2095943.0,1767084405.582
2095682.0,1767084405.622
2095520.0,1767084405.661
2095232.0,1767084405.702
2095205.0,1767084405.742
2095386.0,1767084405.781
2095419.0,1767084405.821
2095678.0,1767084405.862
2096613.0,1767084405.902
2097848.0,1767084405.941
2099293.0,1767084405.983
2097791.0,1767084406.022
2093922.0,1767084406.062
2087214.0,1767084406.103
2078714.0,1767084406.142
2072662.0,1767084406.182
2068786.0,1767084406.223
2065702.0,1767084406.262
2061747.0,1767084406.303
2057834.0,1767084406.344
2056163.0,1767084406.381
2058177.0,1767084406.421
2061550.0,1767084406.463
2064322.0,1767084406.503
2067540.0,1767084406.542
2070350.0,1767084406.584
2073436.0,1767084406.623
2076130.0,1767084406.663
2077522.0,1767084406.705
2077601.0,1767084406.741
2077150.0,1767084406.782
2076315.0,1767084406.823
2077516.0,1767084406.861
2079669.0,1767084406.902
2081845.0,1767084406.943
2083320.0,1767084406.982
2084130.0,1767084407.022
2084482.0,1767084407.063
2084791.0,1767084407.102
2085108.0,1767084407.142
2085641.0,1767084407.183
2086740.0,1767084407.222
2088073.0,1767084407.262
2089311.0,1767084407.304
2090139.0,1767084407.342
2090750.0,1767084407.382
2089520.0,1767084407.423
2088263.0,1767084407.462
2088103.0,1767084407.503
2088664.0,1767084407.543
2089680.0,1767084407.583
2090802.0,1767084407.623
2091432.0,1767084407.665
2092417.0,1767084407.703
2093664.0,1767084407.742
2094697.0,1767084407.784
2095878.0,1767084407.823
2097168.0,1767084407.863
2098889.0,1767084407.905
2099981.0,1767084407.944
2101228.0,1767084407.984
2100988.0,1767084408.025
2099068.0,1767084408.063
2097597.0,1767084408.101
2096470.0,1767084408.142
2095929.0,1767084408.181
2095947.0,1767084408.221
2095941.0,1767084408.262
2095736.0,1767084408.302
2095239.0,1767084408.341
2094028.0,1767084408.382
2093148.0,1767084408.421
2093119.0,1767084408.461
2092310.0,1767084408.503
2090951.0,1767084408.541
2088338.0,1767084408.581
2083244.0,1767084408.622
2075412.0,1767084408.661
2064576.0,1767084408.743
2069908.0,1767084408.702
2057926.0,1767084408.782
2053999.0,1767084408.822
2053884.0,1767084408.864
2054481.0,1767084408.904
2055007.0,1767084408.943
2057120.0,1767084408.985
2059341.0,1767084409.024
2062210.0,1767084409.064
2065560.0,1767084409.106
2069002.0,1767084409.145
2071616.0,1767084409.183
2074706.0,1767084409.224
2077313.0,1767084409.264
2077515.0,1767084409.304
2076644.0,1767084409.339
2076118.0,1767084409.378
2075963.0,1767084409.418
2076225.0,1767084409.459
2077032.0,1767084409.499
2077303.0,1767084409.538
2077759.0,1767084409.58
2078305.0,1767084409.619
2079524.0,1767084409.659
2080648.0,1767084409.701
2082207.0,1767084409.739
2083618.0,1767084409.779
2085438.0,1767084409.82
2086714.0,1767084409.859
2086924.0,1767084409.9
2085202.0,1767084409.94
2084222.0,1767084409.979
2083791.0,1767084410.019
2084266.0,1767084410.062
2085108.0,1767084410.099
2085888.0,1767084410.137
2086687.0,1767084410.179
2087236.0,1767084410.214
2087723.0,1767084410.254
2088879.0,1767084410.29
2089875.0,1767084410.325
2091261.0,1767084410.363
2092619.0,1767084410.404
2092245.0,1767084410.443
2089825.0,1767084410.484
2087041.0,1767084410.525
2084437.0,1767084410.564
2082846.0,1767084410.609
2082139.0,1767084410.65
2081526.0,1767084410.69
2080418.0,1767084410.729
2078563.0,1767084410.77
2076240.0,1767084410.81
2073578.0,1767084410.85
2070726.0,1767084410.891
2067171.0,1767084410.93
2063689.0,1767084410.97
2057479.0,1767084411.011
2049571.0,1767084411.05
2043310.0,1767084411.091
2040719.0,1767084411.131
2039995.0,1767084411.17
2040480.0,1767084411.21
2041375.0,1767084411.251
2042727.0,1767084411.291
2043376.0,1767084411.328
2043758.0,1767084411.37
2044802.0,1767084411.409
2046555.0,1767084411.449
2049029.0,1767084411.491
2051538.0,1767084411.53
2053847.0,1767084411.57
2055254.0,1767084411.611
2054015.0,1767084411.651
2051991.0,1767084411.689
2050614.0,1767084411.73
2049641.0,1767084411.769
2049356.0,1767084411.81
2049828.0,1767084411.851
2049828.0,1767084411.884
2050400.0,1767084411.924
2050249.0,1767084411.965
2050621.0,1767084412.004
2050897.0,1767084412.044
2051664.0,1767084412.086
2052432.0,1767084412.124
2053651.0,1767084412.165
2054894.0,1767084412.206
2056473.0,1767084412.245
2057681.0,1767084412.285
2056255.0,1767084412.326
2053696.0,1767084412.365
2051596.0,1767084412.405
2049742.0,1767084412.446
2048658.0,1767084412.486
2048441.0,1767084412.525
2048687.0,1767084412.567
2049118.0,1767084412.602
2048927.0,1767084412.635
2048958.0,1767084412.672
2049286.0,1767084412.71
2049948.0,1767084412.75
2050982.0,1767084412.792
2052037.0,1767084412.831
2053018.0,1767084412.872
2054109.0,1767084412.913
2055368.0,1767084412.952
2056564.0,1767084412.992
2057249.0,1767084413.033
2054862.0,1767084413.071
2050746.0,1767084413.103
2046916.0,1767084413.144
2043416.0,1767084413.183
2040802.0,1767084413.223
2039256.0,1767084413.265
2038402.0,1767084413.304
2037356.0,1767084413.344
2036850.0,1767084413.385
2036541.0,1767084413.424
2036797.0,1767084413.465
2037612.0,1767084413.505
2039148.0,1767084413.544
2040581.0,1767084413.584
2042298.0,1767084413.625
2044168.0,1767084413.665
2046218.0,1767084413.705
2048171.0,1767084413.746
2049682.0,1767084413.785
2048974.0,1767084413.822
2046482.0,1767084413.857
2044189.0,1767084413.893
2042627.0,1767084413.93
2041417.0,1767084413.971
2041200.0,1767084414.011
2041170.0,1767084414.052
2041465.0,1767084414.092
2041357.0,1767084414.131
2041521.0,1767084414.172
2042257.0,1767084414.213
2043439.0,1767084414.253
2044978.0,1767084414.29
2046316.0,1767084414.332
2047458.0,1767084414.371
2049090.0,1767084414.411
2050758.0,1767084414.453
2052621.0,1767084414.491
2054697.0,1767084414.531
2056345.0,1767084414.572
2055657.0,1767084414.611
2053082.0,1767084414.652
2050808.0,1767084414.692
2049148.0,1767084414.731
2047979.0,1767084414.771
2047640.0,1767084414.812
2048033.0,1767084414.852
2048370.0,1767084414.892
2048477.0,1767084414.933
2048899.0,1767084414.972
2049208.0,1767084415.012
2049556.0,1767084415.054
2048113.0,1767084415.092
2045992.0,1767084415.13
2044118.0,1767084415.171
2042946.0,1767084415.21
2043391.0,1767084415.252
2044476.0,1767084415.293
2045379.0,1767084415.331
2047017.0,1767084415.371
2047806.0,1767084415.412
2045869.0,1767084415.452
2042578.0,1767084415.492
2039466.0,1767084415.533
2039466.0,1767084415.563
2036395.0,1767084415.603
2033108.0,1767084415.645
2030948.0,1767084415.684
2028521.0,1767084415.724
2027047.0,1767084415.765
2025465.0,1767084415.804
2024387.0,1767084415.845
2023954.0,1767084415.885
2024669.0,1767084415.924
2026787.0,1767084415.964
2029180.0,1767084416.005
2031508.0,1767084416.045
2033528.0,1767084416.085
2035705.0,1767084416.126
2038055.0,1767084416.165
2040387.0,1767084416.205
2042335.0,1767084416.247
2041299.0,1767084416.279
2039249.0,1767084416.319
2037990.0,1767084416.356
2037419.0,1767084416.393
2037036.0,1767084416.434
2037657.0,1767084416.474
2038581.0,1767084416.513
2039014.0,1767084416.553
2039590.0,1767084416.595
2040341.0,1767084416.635
2040993.0,1767084416.674
2041808.0,1767084416.716
2043211.0,1767084416.753
2044735.0,1767084416.793
2046149.0,1767084416.835
2048070.0,1767084416.873
2049991.0,1767084416.913
2051899.0,1767084416.955
2054130.0,1767084416.994
2055781.0,1767084417.034
2055231.0,1767084417.075
2053999.0,1767084417.114
2052904.0,1767084417.154
2052494.0,1767084417.195
2052699.0,1767084417.235
2053365.0,1767084417.274
2053977.0,1767084417.315
2053897.0,1767084417.354
2051008.0,1767084417.395
2048676.0,1767084417.436
2046011.0,1767084417.475
2042161.0,1767084417.513
2038545.0,1767084417.554
2035024.0,1767084417.593
2032131.0,1767084417.634
2029974.0,1767084417.678
2026691.0,1767084417.712
2024013.0,1767084417.752
2021597.0,1767084417.793
2019351.0,1767084417.833
2015239.0,1767084417.873
2011602.0,1767084417.914
2010208.0,1767084417.953
2012150.0,1767084417.994
2016624.0,1767084418.035
2021797.0,1767084418.073
2025635.0,1767084418.113
2028481.0,1767084418.154
2030643.0,1767084418.193
2033264.0,1767084418.234
2035520.0,1767084418.274
2037852.0,1767084418.314
2040347.0,1767084418.354
2042502.0,1767084418.395
2044538.0,1767084418.434
2046456.0,1767084418.474
2048593.0,1767084418.515
2050618.0,1767084418.554
2051484.0,1767084418.594
2050520.0,1767084418.636
2049056.0,1767084418.674
2048303.0,1767084418.714
2048187.0,1767084418.756
2048296.0,1767084418.795
2048964.0,1767084418.836
2049229.0,1767084418.875
2049641.0,1767084418.914
2050438.0,1767084418.955
2051625.0,1767084418.996
2052771.0,1767084419.036
2053830.0,1767084419.075
2054787.0,1767084419.117
2056109.0,1767084419.156
2057327.0,1767084419.196
2058347.0,1767084419.235
2059179.0,1767084419.267
2058850.0,1767084419.307
2057017.0,1767084419.349
2056256.0,1767084419.388
2055822.0,1767084419.428
2056171.0,1767084419.469
2056707.0,1767084419.508
2057238.0,1767084419.548
2057544.0,1767084419.589
2058124.0,1767084419.629
2058815.0,1767084419.668
2059624.0,1767084419.71
2060444.0,1767084419.749
2060341.0,1767084419.789
2060347.0,1767084419.831
2060162.0,1767084419.869
2058802.0,1767084419.909
2053832.0,1767084419.95
2047946.0,1767084419.99
2042908.0,1767084420.03
2037721.0,1767084420.071
2030428.0,1767084420.11
2024307.0,1767084420.15
2020015.0,1767084420.191
2018035.0,1767084420.232
2015448.0,1767084420.269
2011568.0,1767084420.309
2009435.0,1767084420.348
2010309.0,1767084420.384
2013508.0,1767084420.416
2017339.0,1767084420.455
2019527.0,1767084420.496
2019383.0,1767084420.537
2018718.0,1767084420.576
2019061.0,1767084420.617
2019517.0,1767084420.657
2020231.0,1767084420.696
2020574.0,1767084420.736
2020100.0,1767084420.817
2020115.0,1767084420.777
2020824.0,1767084420.857
2021658.0,1767084420.898
2022408.0,1767084420.937
2023125.0,1767084420.977
2025264.0,1767084421.057
2024388.0,1767084421.018
2025078.0,1767084421.097
2022957.0,1767084421.138
2021144.0,1767084421.175
2019778.0,1767084421.256
2020149.0,1767084421.216
2019852.0,1767084421.336
2019687.0,1767084421.295
2019881.0,1767084421.377
2020212.0,1767084421.417
2020289.0,1767084421.457
2020906.0,1767084421.496
2022813.0,1767084421.575
2021610.0,1767084421.535
2025455.0,1767084421.656
2024173.0,1767084421.617
2025450.0,1767084421.694
2025450.0,1767084421.727
2022922.0,1767084421.766
2020049.0,1767084421.807
2017778.0,1767084421.847
2016141.0,1767084421.886
2015293.0,1767084421.926
2015194.0,1767084421.967
2015265.0,1767084422.007
2014895.0,1767084422.046
2014920.0,1767084422.088
2015593.0,1767084422.127
2016665.0,1767084422.167
2019056.0,1767084422.247
2017706.0,1767084422.209
2020080.0,1767084422.287
2021097.0,1767084422.328
2017887.0,1767084422.409
2013277.0,1767084422.45
2007775.0,1767084422.484
2021270.0,1767084422.367
2002384.0,1767084422.523
1998810.0,1767084422.562
1997614.0,1767084422.601
1997297.0,1767084422.64
1997221.0,1767084422.679
1997767.0,1767084422.718
1998056.0,1767084422.757
1998291.0,1767084422.796
1998537.0,1767084422.835
1999442.0,1767084422.874
2000689.0,1767084422.913
2001769.0,1767084422.952
2003288.0,1767084422.991
2005257.0,1767084423.03
2007261.0,1767084423.069
2009124.0,1767084423.108
2009977.0,1767084423.147
2008250.0,1767084423.186
2005891.0,1767084423.225
2003902.0,1767084423.264
2002227.0,1767084423.303
2001411.0,1767084423.342
2001273.0,1767084423.381
2001346.0,1767084423.42
2000925.0,1767084423.459
2000767.0,1767084423.498
2000602.0,1767084423.537
2000200.0,1767084423.576
2000728.0,1767084423.615
2000980.0,1767084423.654
2001688.0,1767084423.693
2002573.0,1767084423.732
2003232.0,1767084423.771
2004220.0,1767084423.81
2005357.0,1767084423.849
2006562.0,1767084423.888
2007886.0,1767084423.927
2007890.0,1767084423.966
2005694.0,1767084424.005
2002959.0,1767084424.044
2001226.0,1767084424.083
1999341.0,1767084424.122
1998465.0,1767084424.161
1998100.0,1767084424.2
1997984.0,1767084424.239
1997936.0,1767084424.278
1997978.0,1767084424.317
1998350.0,1767084424.356
1998758.0,1767084424.395
2000037.0,1767084424.473
1999753.0,1767084424.434
1996582.0,1767084424.512
1986646.0,1767084424.59
1984862.0,1767084424.629
1984481.0,1767084424.668
1990888.0,1767084424.551
1985031.0,1767084424.707
1987985.0,1767084424.746
1992748.0,1767084424.785
1993431.0,1767084424.824
1991503.0,1767084424.863
1987182.0,1767084424.902
1982106.0,1767084424.941
1977918.0,1767084424.98
1977287.0,1767084425.019
1975350.0,1767084425.058
1974276.0,1767084425.097
1973165.0,1767084425.136
1973235.0,1767084425.175
1974223.0,1767084425.214
1975925.0,1767084425.253
1979501.0,1767084425.292
1983221.0,1767084425.331
1985930.0,1767084425.37
1987827.0,1767084425.409
1990349.0,1767084425.448
1992774.0,1767084425.487
1995527.0,1767084425.526
1998203.0,1767084425.565
1999809.0,1767084425.604
2000031.0,1767084425.643
2000547.0,1767084425.682
2002230.0,1767084425.721
2003637.0,1767084425.76
2005704.0,1767084425.799
2008282.0,1767084425.838
2010469.0,1767084425.877
2012054.0,1767084425.916
2013487.0,1767084425.955
2014939.0,1767084425.994
2016792.0,1767084426.033
2018709.0,1767084426.072
2020823.0,1767084426.111
2022592.0,1767084426.15
2024053.0,1767084426.189
2025691.0,1767084426.228
2025691.0,1767084426.267
2027562.0,1767084426.306
2029590.0,1767084426.345
2031534.0,1767084426.384
2032932.0,1767084426.424
2032721.0,1767084426.464
2031919.0,1767084426.504
2031080.0,1767084426.544
2030832.0,1767084426.584
2030728.0,1767084426.624
2030993.0,1767084426.664
2031401.0,1767084426.704
2031396.0,1767084426.744
2031796.0,1767084426.784
2032644.0,1767084426.824
2032900.0,1767084426.864
2033658.0,1767084426.904
2034593.0,1767084426.944
2036505.0,1767084426.984
2037954.0,1767084427.024
2039669.0,1767084427.064
2041363.0,1767084427.104
2042296.0,1767084427.144
2040829.0,1767084427.184
2037207.0,1767084427.224
2033385.0,1767084427.264
2031366.0,1767084427.304
2030978.0,1767084427.344
2031279.0,1767084427.384
2032021.0,1767084427.424
2032434.0,1767084427.464
2032375.0,1767084427.504
2032148.0,1767084427.544
2032422.0,1767084427.584
2032791.0,1767084427.624
2033635.0,1767084427.664
2035082.0,1767084427.704
2036018.0,1767084427.744
2037650.0,1767084427.784
2038894.0,1767084427.824
2039685.0,1767084427.864
2039354.0,1767084427.904
2038685.0,1767084427.944
2038219.0,1767084427.984
2038311.0,1767084428.024
2038903.0,1767084428.064
2039675.0,1767084428.104
2040454.0,1767084428.144
2041014.0,1767084428.184
2041596.0,1767084428.224
2042598.0,1767084428.264
2043926.0,1767084428.304
2045379.0,1767084428.344
2046748.0,1767084428.384
2048143.0,1767084428.424
2049360.0,1767084428.464
2050782.0,1767084428.504
2051695.0,1767084428.544
2050809.0,1767084428.584
2049453.0,1767084428.624
2048595.0,1767084428.664
2047967.0,1767084428.704
2047608.0,1767084428.744
2047662.0,1767084428.784
2048147.0,1767084428.824
2048065.0,1767084428.864
2048240.0,1767084428.904
2048694.0,1767084428.944
2049313.0,1767084428.984
2050010.0,1767084429.024
2051061.0,1767084429.064
2051931.0,1767084429.104
2052468.0,1767084429.144
2053167.0,1767084429.184
2052322.0,1767084429.224
2049311.0,1767084429.264
2045099.0,1767084429.304
2039636.0,1767084429.344
2034222.0,1767084429.384
2029312.0,1767084429.424
2025245.0,1767084429.464
2022882.0,1767084429.504
2023806.0,1767084429.544
2029636.0,1767084429.584
2029966.0,1767084429.624
2029466.0,1767084429.664
2030154.0,1767084429.704
2031392.0,1767084429.744
2032884.0,1767084429.784
2034253.0,1767084429.824
2038317.0,1767084429.864
2042220.0,1767084429.904
2047676.0,1767084429.984
2044723.0,1767084429.944
2049159.0,1767084430.024
2049450.0,1767084430.064
2049275.0,1767084430.104
2049222.0,1767084430.144
2049220.0,1767084430.184
2049395.0,1767084430.224
2050565.0,1767084430.264
2051858.0,1767084430.304
2053275.0,1767084430.344
2054151.0,1767084430.384
2055535.0,1767084430.424
2057028.0,1767084430.464
2058846.0,1767084430.504
2060538.0,1767084430.544
2062234.0,1767084430.584
2064188.0,1767084430.624
2065907.0,1767084430.664
2067715.0,1767084430.704
2069587.0,1767084430.744
2070715.0,1767084430.784
2069992.0,1767084430.824
2069259.0,1767084430.864
2068733.0,1767084430.904
2068717.0,1767084430.944
2069239.0,1767084430.984
2070100.0,1767084431.024
2070907.0,1767084431.064
2071901.0,1767084431.104
2072910.0,1767084431.144
2074315.0,1767084431.184
2075599.0,1767084431.224
2076975.0,1767084431.264
2078574.0,1767084431.304
2080297.0,1767084431.344
2081458.0,1767084431.384
2082908.0,1767084431.424
2084579.0,1767084431.464
2086251.0,1767084431.504
2087297.0,1767084431.544
2087030.0,1767084431.584
2086053.0,1767084431.624
2085827.0,1767084431.664
2085731.0,1767084431.704
2085984.0,1767084431.744
2086573.0,1767084431.784
2086421.0,1767084431.824
2082755.0,1767084431.864
2077601.0,1767084431.904
2074425.0,1767084431.944
2071787.0,1767084431.984
2066676.0,1767084432.024
2062033.0,1767084432.064
2058332.0,1767084432.104
2054565.0,1767084432.144
2053854.0,1767084432.184
2056800.0,1767084432.224
2060746.0,1767084432.264
2063422.0,1767084432.304
2064593.0,1767084432.344
2065651.0,1767084432.384
2066041.0,1767084432.424
2066554.0,1767084432.464
2067464.0,1767084432.504
2067464.0,1767084432.544
2068586.0,1767084432.584
2069536.0,1767084432.624
2070888.0,1767084432.664
2071856.0,1767084432.704
2073230.0,1767084432.744
2074304.0,1767084432.784
2075761.0,1767084432.824
2077434.0,1767084432.864
2079474.0,1767084432.904
2081761.0,1767084432.944
2083801.0,1767084432.984
2085385.0,1767084433.024
2086007.0,1767084433.064
2085619.0,1767084433.104
2085975.0,1767084433.144
2086484.0,1767084433.184
2087373.0,1767084433.224
2088343.0,1767084433.264
2089356.0,1767084433.304
2090079.0,1767084433.344
2091381.0,1767084433.384
2092410.0,1767084433.424
2093732.0,1767084433.464
2094943.0,1767084433.504
2096216.0,1767084433.544
2097738.0,1767084433.584
2099080.0,1767084433.624
2100019.0,1767084433.664
2099472.0,1767084433.704
2098650.0,1767084433.744
2098267.0,1767084433.784
2098502.0,1767084433.824
2098808.0,1767084433.864
2099400.0,1767084433.904
2100078.0,1767084433.944
2100440.0,1767084433.984
2100915.0,1767084434.024
2101883.0,1767084434.064
2102762.0,1767084434.104
2103631.0,1767084434.144
2104840.0,1767084434.184
2106213.0,1767084434.224
2107742.0,1767084434.264
2108568.0,1767084434.304
2107490.0,1767084434.344
2105939.0,1767084434.384
2104392.0,1767084434.417
2104181.0,1767084434.458
2104498.0,1767084434.498
2105287.0,1767084434.537
2106438.0,1767084434.578
2107057.0,1767084434.618
2107869.0,1767084434.658
2108796.0,1767084434.699
2109835.0,1767084434.738
2111099.0,1767084434.778
2112776.0,1767084434.819
2114392.0,1767084434.858
2116413.0,1767084434.899
2118025.0,1767084434.94
2119684.0,1767084434.972
2119491.0,1767084435.012
2118916.0,1767084435.053
2118664.0,1767084435.093
2117922.0,1767084435.132
2117747.0,1767084435.173
2118300.0,1767084435.212
2118631.0,1767084435.252
2119272.0,1767084435.294
2119747.0,1767084435.332
2120472.0,1767084435.373
2121301.0,1767084435.414
2122350.0,1767084435.453
2123760.0,1767084435.494
2124773.0,1767084435.534
2125965.0,1767084435.573
2127408.0,1767084435.613
2128555.0,1767084435.654
2129397.0,1767084435.695
2129186.0,1767084435.735
2127449.0,1767084435.814
2126879.0,1767084435.851
2126486.0,1767084435.887
2126444.0,1767084435.926
2126472.0,1767084435.961
2126500.0,1767084436.0
2127237.0,1767084436.08
2126914.0,1767084436.039
2127659.0,1767084436.121
2128252.0,1767084435.774
2128186.0,1767084436.16
2128908.0,1767084436.199
2129810.0,1767084436.24
2130919.0,1767084436.28
2131554.0,1767084436.319
2132628.0,1767084436.361
2133089.0,1767084436.4
2134207.0,1767084436.44
2135269.0,1767084436.482
2136360.0,1767084436.52
2136634.0,1767084436.601
2135953.0,1767084436.64
2137039.0,1767084436.56
2135175.0,1767084436.681
2134638.0,1767084436.721
2134426.0,1767084436.76
2134474.0,1767084436.801
2134773.0,1767084436.842
2134934.0,1767084436.881
2135083.0,1767084436.921
2135008.0,1767084436.961
2135815.0,1767084437.0
2137065.0,1767084437.04
2138486.0,1767084437.082
2140130.0,1767084437.121
2141411.0,1767084437.161
2142478.0,1767084437.202
2143629.0,1767084437.241
2144812.0,1767084437.282
2146161.0,1767084437.321
2146908.0,1767084437.4
2146120.0,1767084437.432
2145414.0,1767084437.471
2146993.0,1767084437.36
2145049.0,1767084437.511
2144847.0,1767084437.552
2145303.0,1767084437.591
2145465.0,1767084437.631
2145551.0,1767084437.673
2145392.0,1767084437.711
2145273.0,1767084437.751
2145613.0,1767084437.792
2146213.0,1767084437.832
2146979.0,1767084437.872
2148411.0,1767084437.913
2150668.0,1767084437.952
2152795.0,1767084437.992
2154616.0,1767084438.033
2155515.0,1767084438.073
2155818.0,1767084438.112
2154915.0,1767084438.153
2154021.0,1767084438.192
2153587.0,1767084438.232
2153721.0,1767084438.274
2154023.0,1767084438.306
2153385.0,1767084438.347
2152997.0,1767084438.383
2152981.0,1767084438.419
2153321.0,1767084438.461
2150342.0,1767084438.501
2147150.0,1767084438.54
2145557.0,1767084438.581
2144261.0,1767084438.622
2142930.0,1767084438.66
2141295.0,1767084438.699
2140021.0,1767084438.74
2139456.0,1767084438.779
2140610.0,1767084438.819
2141317.0,1767084438.861
2141035.0,1767084438.899
2140901.0,1767084438.939
2141534.0,1767084438.98
2141808.0,1767084439.019
2142158.0,1767084439.06
2142584.0,1767084439.101
2143143.0,1767084439.14
2143907.0,1767084439.18
2144482.0,1767084439.221
2145343.0,1767084439.261
2146467.0,1767084439.3
2147183.0,1767084439.341
2148074.0,1767084439.38
2147890.0,1767084439.42
2146884.0,1767084439.462
2145545.0,1767084439.501
2144652.0,1767084439.541
2144225.0,1767084439.583
2144018.0,1767084439.622
2144251.0,1767084439.663
2144369.0,1767084439.701
2144223.0,1767084439.741
2144440.0,1767084439.781
2144618.0,1767084439.822
2144701.0,1767084439.862
2144701.0,1767084439.897
2145245.0,1767084439.939
2145715.0,1767084439.978
2146270.0,1767084440.018
2147174.0,1767084440.06
2148099.0,1767084440.098
2148239.0,1767084440.138
2147178.0,1767084440.179
2145924.0,1767084440.218
2144931.0,1767084440.259
2143926.0,1767084440.3
2143387.0,1767084440.339
2143173.0,1767084440.379
2143137.0,1767084440.42
2142946.0,1767084440.46
2142949.0,1767084440.499
2143184.0,1767084440.54
2143583.0,1767084440.579
2144016.0,1767084440.621
2144544.0,1767084440.663
2145065.0,1767084440.7
2145659.0,1767084440.74
2146349.0,1767084440.781
2146781.0,1767084440.821
2147072.0,1767084440.862
2146061.0,1767084440.902
2144337.0,1767084440.941
2142644.0,1767084440.982
2141384.0,1767084441.023
2140233.0,1767084441.063
2139436.0,1767084441.1
2138873.0,1767084441.136
2138267.0,1767084441.175
2138034.0,1767084441.215
2137626.0,1767084441.257
2137358.0,1767084441.295
2137296.0,1767084441.336
2137332.0,1767084441.377
2137169.0,1767084441.416
2137675.0,1767084441.456
2138443.0,1767084441.497
2137843.0,1767084441.536
2134953.0,1767084441.576
2129728.0,1767084441.617
2124390.0,1767084441.657
2119258.0,1767084441.697
2114484.0,1767084441.738
2111493.0,1767084441.777
2109101.0,1767084441.814
2102631.0,1767084441.849
2095770.0,1767084441.887
2092328.0,1767084441.924
2090219.0,1767084441.964
2090226.0,1767084442.003
2092248.0,1767084442.044
2094532.0,1767084442.085
2096649.0,1767084442.124
2099064.0,1767084442.164
2100933.0,1767084442.205
2102799.0,1767084442.245
2104959.0,1767084442.285
2106788.0,1767084442.323
2108413.0,1767084442.362
2108864.0,1767084442.402
2107829.0,1767084442.444
2106581.0,1767084442.482
2105732.0,1767084442.523
2105135.0,1767084442.564
2105516.0,1767084442.603
2106480.0,1767084442.643
2107267.0,1767084442.684
2108968.0,1767084442.723
2110528.0,1767084442.763
2112205.0,1767084442.804
2115161.0,1767084442.883
2113814.0,1767084442.844
2117024.0,1767084442.924
2118874.0,1767084442.963
2120750.0,1767084443.004
2122270.0,1767084443.045
2124780.0,1767084443.124
2123748.0,1767084443.084
2124366.0,1767084443.165
2122879.0,1767084443.245
2121836.0,1767084443.324
2122449.0,1767084443.285
2120750.0,1767084443.364
2123423.0,1767084443.204
2118372.0,1767084443.445
2119651.0,1767084443.405
2117255.0,1767084443.485
2117072.0,1767084443.526
2117090.0,1767084443.565
2117347.0,1767084443.605
2117741.0,1767084443.647
2118716.0,1767084443.725
2119077.0,1767084443.805
2118128.0,1767084443.685
2119178.0,1767084443.766
2114723.0,1767084443.886
2117838.0,1767084443.846
2106321.0,1767084443.965
2111458.0,1767084443.925
2095129.0,1767084444.046
2099942.0,1767084444.007
2084885.0,1767084444.127
2089974.0,1767084444.086
2080109.0,1767084444.206
2077944.0,1767084444.248
2072900.0,1767084444.286
2069444.0,1767084444.326
2068385.0,1767084444.367
2080822.0,1767084444.166
2070270.0,1767084444.406
2072813.0,1767084444.447
2074169.0,1767084444.488
2075179.0,1767084444.527
2075914.0,1767084444.567
2077051.0,1767084444.608
2078257.0,1767084444.648
2079364.0,1767084444.687
2079981.0,1767084444.728
2080252.0,1767084444.767
2078773.0,1767084444.807
2077454.0,1767084444.849
2077457.0,1767084444.887
2078642.0,1767084444.927
2081034.0,1767084444.969
2083006.0,1767084445.008
2084690.0,1767084445.048
2086666.0,1767084445.089
2087328.0,1767084445.128
2086960.0,1767084445.168
2085828.0,1767084445.209
2084642.0,1767084445.288
2084966.0,1767084445.249
2084976.0,1767084445.329
2085721.0,1767084445.368
2086588.0,1767084445.451
2086034.0,1767084445.408
2087404.0,1767084445.49
2088631.0,1767084445.527
2089630.0,1767084445.566
2090695.0,1767084445.605
2092284.0,1767084445.646
2093441.0,1767084445.687
2094724.0,1767084445.726
2096026.0,1767084445.766
2096484.0,1767084445.807
2095190.0,1767084445.844
2093518.0,1767084445.883
2092447.0,1767084445.925
2091942.0,1767084445.965
2091420.0,1767084446.005
2091698.0,1767084446.04
2091598.0,1767084446.078
2091438.0,1767084446.118
2091566.0,1767084446.16
2091781.0,1767084446.199
2091956.0,1767084446.24
2092811.0,1767084446.28
2092574.0,1767084446.319
2088291.0,1767084446.36
2083937.0,1767084446.401
2081084.0,1767084446.441
2079672.0,1767084446.48
2077802.0,1767084446.522
2075656.0,1767084446.561
2074772.0,1767084446.601
2074707.0,1767084446.643
2074874.0,1767084446.681
2075495.0,1767084446.721
2076179.0,1767084446.762
2077075.0,1767084446.802
2078012.0,1767084446.841
2079376.0,1767084446.878
2081152.0,1767084446.917
2082363.0,1767084446.953
2083868.0,1767084446.99
2085606.0,1767084447.027
2087385.0,1767084447.066
2088138.0,1767084447.107
2087532.0,1767084447.147
2086656.0,1767084447.187
2085749.0,1767084447.229
2085604.0,1767084447.3
2085749.0,1767084447.26
2085860.0,1767084447.341
2086585.0,1767084447.38
2087089.0,1767084447.421
2087984.0,1767084447.462
2088496.0,1767084447.501
2089109.0,1767084447.541
2089919.0,1767084447.582
2091167.0,1767084447.622
2091866.0,1767084447.661
2092758.0,1767084447.702
2095089.0,1767084447.781
2093940.0,1767084447.741
2096316.0,1767084447.823
2095481.0,1767084447.862
2094088.0,1767084447.902
2092790.0,1767084447.943
2091936.0,1767084447.976
2091299.0,1767084448.017
2091173.0,1767084448.049
2091171.0,1767084448.088
2091180.0,1767084448.128
2091283.0,1767084448.17
2091607.0,1767084448.209
2092301.0,1767084448.249
2092908.0,1767084448.29
2093822.0,1767084448.329
2095082.0,1767084448.366
2095952.0,1767084448.409
2096923.0,1767084448.447
2097562.0,1767084448.487
2096608.0,1767084448.524
2094641.0,1767084448.563
2092245.0,1767084448.604
2086074.0,1767084448.644
2077489.0,1767084448.683
2070247.0,1767084448.723
2064933.0,1767084448.765
2066162.0,1767084448.804
2069086.0,1767084448.844
2068807.0,1767084448.924
2070607.0,1767084448.885
2065856.0,1767084448.964
2062578.0,1767084449.044
2063523.0,1767084449.126
2065485.0,1767084449.165
2062880.0,1767084449.085
2063777.0,1767084449.006
2068569.0,1767084449.206
2070347.0,1767084449.285
2069066.0,1767084449.246
2071525.0,1767084449.325
2073578.0,1767084449.366
2075744.0,1767084449.406
2076861.0,1767084449.447
2077398.0,1767084449.488
2077768.0,1767084449.527
2077911.0,1767084449.568
2078623.0,1767084449.61
2079122.0,1767084449.649
2079841.0,1767084449.689
2080958.0,1767084449.721
2081691.0,1767084449.76
2082596.0,1767084449.801
2083216.0,1767084449.841
2082094.0,1767084449.88
2080215.0,1767084449.92
2078970.0,1767084449.961
2078267.0,1767084450.001
2077829.0,1767084450.04
2078040.0,1767084450.082
2078480.0,1767084450.121
2078909.0,1767084450.161
2079044.0,1767084450.203
2079627.0,1767084450.241
2080422.0,1767084450.281
2081131.0,1767084450.322
2082171.0,1767084450.361
2083061.0,1767084450.402
2083959.0,1767084450.439
2085070.0,1767084450.478
2085850.0,1767084450.511
2086052.0,1767084450.549
2084622.0,1767084450.589
2083206.0,1767084450.629
2082176.0,1767084450.67
2081496.0,1767084450.709
2080994.0,1767084450.749
2076158.0,1767084450.791
2068886.0,1767084450.83
2062688.0,1767084450.87
2056671.0,1767084450.909
2056671.0,1767084450.941
2052101.0,1767084450.982
2050872.0,1767084451.023
2053268.0,1767084451.062
2054125.0,1767084451.102
2055453.0,1767084451.143
2056631.0,1767084451.183
2054512.0,1767084451.222
2051548.0,1767084451.263
2049980.0,1767084451.302
2049637.0,1767084451.342
2049737.0,1767084451.384
2049393.0,1767084451.423
2050137.0,1767084451.463
2051157.0,1767084451.504
2052562.0,1767084451.543
2054163.0,1767084451.584
2055640.0,1767084451.624
2057395.0,1767084451.663
2059718.0,1767084451.703
2061253.0,1767084451.745
2062624.0,1767084451.784
2064044.0,1767084451.824
2065087.0,1767084451.865
2066864.0,1767084451.904
2069398.0,1767084451.944
2072308.0,1767084451.986
2074933.0,1767084452.024
2076539.0,1767084452.064
2076349.0,1767084452.106
2075825.0,1767084452.145
2075443.0,1767084452.185
2075444.0,1767084452.226
2075766.0,1767084452.265
2076002.0,1767084452.305
2076795.0,1767084452.346
2077162.0,1767084452.386
2077560.0,1767084452.425
2078602.0,1767084452.466
2079295.0,1767084452.506
2080310.0,1767084452.546
2081553.0,1767084452.587
2082358.0,1767084452.626
2083451.0,1767084452.666
2084762.0,1767084452.707
2085770.0,1767084452.746
2085753.0,1767084452.787
2084648.0,1767084452.827
2083473.0,1767084452.867
2082833.0,1767084452.907
2082805.0,1767084452.948
2082774.0,1767084452.987
2083113.0,1767084453.027
2083339.0,1767084453.068
2083619.0,1767084453.107
2084209.0,1767084453.147
2084972.0,1767084453.189
2085920.0,1767084453.227
2086644.0,1767084453.268
2087821.0,1767084453.309
2088898.0,1767084453.348
2090113.0,1767084453.388
2090676.0,1767084453.429
2090005.0,1767084453.468
2088944.0,1767084453.508
2088581.0,1767084453.549
2088702.0,1767084453.589
2088835.0,1767084453.628
2089484.0,1767084453.669
2089822.0,1767084453.709
2090195.0,1767084453.749
2090884.0,1767084453.791
2091942.0,1767084453.829
2093299.0,1767084453.869
2094786.0,1767084453.91
2096298.0,1767084453.949
2097936.0,1767084453.99
2099765.0,1767084454.03
2099761.0,1767084454.069
2099364.0,1767084454.109
2098522.0,1767084454.15
2097929.0,1767084454.19
2097803.0,1767084454.229
2098084.0,1767084454.27
2098304.0,1767084454.309
2098672.0,1767084454.35
2099166.0,1767084454.391
2099454.0,1767084454.43
2100412.0,1767084454.47
2101313.0,1767084454.511
2101958.0,1767084454.55
2103133.0,1767084454.591
2104142.0,1767084454.631
2105209.0,1767084454.67
2106088.0,1767084454.71
2105049.0,1767084454.751
2103835.0,1767084454.791
2102577.0,1767084454.83
2101845.0,1767084454.871
2101352.0,1767084454.91
2101295.0,1767084454.951
2101370.0,1767084454.992
2101423.0,1767084455.031
2101684.0,1767084455.071
2102032.0,1767084455.112
2102449.0,1767084455.151
2102983.0,1767084455.192
2103574.0,1767084455.232
2104664.0,1767084455.271
2105632.0,1767084455.311
2106741.0,1767084455.352
2108238.0,1767084455.392
2108589.0,1767084455.431
2108074.0,1767084455.472
2106315.0,1767084455.512
2102925.0,1767084455.552
2098092.0,1767084455.593
2093514.0,1767084455.632
2089750.0,1767084455.672
2088286.0,1767084455.713
2086080.0,1767084455.752
2083511.0,1767084455.793
2078961.0,1767084455.833
2073635.0,1767084455.872
2071298.0,1767084455.912
2072214.0,1767084455.953
2073410.0,1767084455.993
2074398.0,1767084456.033
2077300.0,1767084456.074
2080916.0,1767084456.113
2084167.0,1767084456.153
2087307.0,1767084456.195
2089315.0,1767084456.233
2089750.0,1767084456.273
2089149.0,1767084456.314
2088674.0,1767084456.353
2088414.0,1767084456.394
2089343.0,1767084456.434
2090394.0,1767084456.473
2091164.0,1767084456.514
2091505.0,1767084456.555
2091934.0,1767084456.594
2092780.0,1767084456.634
2093319.0,1767084456.675
2093963.0,1767084456.714
2094941.0,1767084456.754
2096220.0,1767084456.796
2097318.0,1767084456.834
2098454.0,1767084456.874
2099691.0,1767084456.915
2099865.0,1767084456.954
2099193.0,1767084456.995
2098533.0,1767084457.036
2098253.0,1767084457.075
2098194.0,1767084457.115
2098346.0,1767084457.156
2099211.0,1767084457.196
2099605.0,1767084457.235
2100277.0,1767084457.276
2101024.0,1767084457.315
2101490.0,1767084457.355
2102468.0,1767084457.397
2103530.0,1767084457.435
2104756.0,1767084457.476
2105911.0,1767084457.517
2107204.0,1767084457.556
2108259.0,1767084457.596
2109598.0,1767084457.637
2110399.0,1767084457.676
2109638.0,1767084457.716
2109044.0,1767084457.757
2108006.0,1767084457.797
2104544.0,1767084457.836
2099320.0,1767084457.877
2094938.0,1767084457.916
2091262.0,1767084457.957
2086702.0,1767084457.998
2084200.0,1767084458.037
2081129.0,1767084458.077
2079901.0,1767084458.118
2079347.0,1767084458.157
2079945.0,1767084458.198
2081750.0,1767084458.238
2083878.0,1767084458.277
2086481.0,1767084458.316
2088182.0,1767084458.357
2089559.0,1767084458.397
2090443.0,1767084458.436
2089776.0,1767084458.477
2089280.0,1767084458.517
2088717.0,1767084458.598
2088539.0,1767084458.637
2089140.0,1767084458.677
2088833.0,1767084458.557
2089789.0,1767084458.718
2090048.0,1767084458.757
2090764.0,1767084458.798
2091666.0,1767084458.838
2092463.0,1767084458.877
2093361.0,1767084458.917
2094397.0,1767084458.958
2095419.0,1767084458.998
2096422.0,1767084459.037
2097624.0,1767084459.079
2099117.0,1767084459.118
2100437.0,1767084459.158
2101324.0,1767084459.2
2101241.0,1767084459.238
2100441.0,1767084459.278
2100236.0,1767084459.319
2100082.0,1767084459.358
2100080.0,1767084459.399
2100507.0,1767084459.439
2101111.0,1767084459.478
2102386.0,1767084459.56
2103093.0,1767084459.599
2103882.0,1767084459.639
2104526.0,1767084459.68
2105684.0,1767084459.719
2106775.0,1767084459.759
2108990.0,1767084459.839
2110484.0,1767084459.879
2107856.0,1767084459.801
2101947.0,1767084459.518
2111938.0,1767084459.92
2113496.0,1767084459.96
2114527.0,1767084460.0
2114840.0,1767084460.041
2113445.0,1767084460.08
2112193.0,1767084460.12
2112276.0,1767084460.161
2113075.0,1767084460.201
2114043.0,1767084460.24
2114516.0,1767084460.281
2115007.0,1767084460.32
2115819.0,1767084460.36
2118067.0,1767084460.402
2119876.0,1767084460.441
2121384.0,1767084460.481
2122117.0,1767084460.522
2123440.0,1767084460.561
2124638.0,1767084460.602
2126117.0,1767084460.642
2128018.0,1767084460.681
2129165.0,1767084460.721
2129327.0,1767084460.762
2128849.0,1767084460.802
2128386.0,1767084460.883
2128554.0,1767084460.922
2128552.0,1767084460.841
2129690.0,1767084461.004
2130381.0,1767084461.082
2130876.0,1767084461.123
2129710.0,1767084461.042
2131669.0,1767084461.162
2129061.0,1767084460.962
2132611.0,1767084461.203
2133659.0,1767084461.244
2134734.0,1767084461.283
2135774.0,1767084461.323
2136798.0,1767084461.364
2137550.0,1767084461.404
2137184.0,1767084461.443
2136527.0,1767084461.484
2136058.0,1767084461.523
2135848.0,1767084461.563
2135941.0,1767084461.605
2136019.0,1767084461.644
2136177.0,1767084461.684
2136572.0,1767084461.725
2136909.0,1767084461.764
2137415.0,1767084461.805
2138085.0,1767084461.845
2138652.0,1767084461.884
2139680.0,1767084461.924
2140733.0,1767084461.965
2141602.0,1767084462.005
2142466.0,1767084462.045
2142556.0,1767084462.086
2141794.0,1767084462.125
2140946.0,1767084462.165
2140458.0,1767084462.207
2140358.0,1767084462.245
2139732.0,1767084462.285
2137542.0,1767084462.326
2133587.0,1767084462.365
2128790.0,1767084462.406
2125916.0,1767084462.447
2123783.0,1767084462.486
2120730.0,1767084462.526
2118319.0,1767084462.567
2116616.0,1767084462.607
2117137.0,1767084462.646
2119508.0,1767084462.687
2121133.0,1767084462.726
2123350.0,1767084462.766
2124674.0,1767084462.808
2124410.0,1767084462.847
2123924.0,1767084462.887
2123667.0,1767084462.928
2123944.0,1767084463.008
2123554.0,1767084462.967
2124142.0,1767084463.048
2124801.0,1767084463.087
2125381.0,1767084463.127
2126279.0,1767084463.168
2127196.0,1767084463.208
2128043.0,1767084463.247
2128908.0,1767084463.289
2129787.0,1767084463.328
2130377.0,1767084463.368
2131400.0,1767084463.409
2132029.0,1767084463.448
2131746.0,1767084463.488
2130648.0,1767084463.529
2129470.0,1767084463.568
2128794.0,1767084463.609
2128138.0,1767084463.649
2128073.0,1767084463.688
2127890.0,1767084463.729
2127854.0,1767084463.77
2128171.0,1767084463.809
2127984.0,1767084463.849
2128571.0,1767084463.89
2129009.0,1767084463.929
2129298.0,1767084463.969
2130015.0,1767084464.011
2130545.0,1767084464.049
2131219.0,1767084464.089
2131795.0,1767084464.131
2132636.0,1767084464.17
2133524.0,1767084464.21
2134152.0,1767084464.251
2134362.0,1767084464.29
2133049.0,1767084464.33
2131900.0,1767084464.371
2130950.0,1767084464.411
2130317.0,1767084464.45
2129777.0,1767084464.492
2129849.0,1767084464.531
2130146.0,1767084464.571
2130210.0,1767084464.613
2130416.0,1767084464.651
2130957.0,1767084464.691
2131689.0,1767084464.732
2132538.0,1767084464.771
2133138.0,1767084464.812
2134009.0,1767084464.853
2134484.0,1767084464.892
2135386.0,1767084464.932
2136540.0,1767084464.973
2137708.0,1767084465.013
2137448.0,1767084465.052
2136228.0,1767084465.093
2135217.0,1767084465.132
2134374.0,1767084465.172
2133586.0,1767084465.214
2133303.0,1767084465.253
2133329.0,1767084465.293
2132954.0,1767084465.334
2133004.0,1767084465.373
2133088.0,1767084465.414
2133467.0,1767084465.454
2133780.0,1767084465.493
2134179.0,1767084465.533
2135106.0,1767084465.574
2135678.0,1767084465.614
2136321.0,1767084465.654
2136936.0,1767084465.695
2137977.0,1767084465.734
2138644.0,1767084465.774
2139594.0,1767084465.816
2138752.0,1767084465.854
2137371.0,1767084465.894
2136627.0,1767084465.935
2136048.0,1767084465.974
2135520.0,1767084466.015
2135502.0,1767084466.056
2135732.0,1767084466.095
2135554.0,1767084466.135
2135529.0,1767084466.176
2135701.0,1767084466.216
2135641.0,1767084466.255
2136156.0,1767084466.296
2136439.0,1767084466.335
2136999.0,1767084466.375
2137609.0,1767084466.417
2138319.0,1767084466.456
2139014.0,1767084466.496
2137780.0,1767084466.537
2134999.0,1767084466.576
2131440.0,1767084466.617
2128390.0,1767084466.657
2124994.0,1767084466.696
2121842.0,1767084466.736
2118812.0,1767084466.777
2117404.0,1767084466.817
2117324.0,1767084466.856
2117735.0,1767084466.897
2118263.0,1767084466.936
2118915.0,1767084466.976
2119903.0,1767084467.018
2121220.0,1767084467.057
2122448.0,1767084467.097
2123888.0,1767084467.138
2124838.0,1767084467.177
2125759.0,1767084467.217
2125612.0,1767084467.258
2125036.0,1767084467.297
2124419.0,1767084467.337
2124138.0,1767084467.378
2124187.0,1767084467.418
2124129.0,1767084467.457
2123886.0,1767084467.498
2123746.0,1767084467.537
2123524.0,1767084467.577
2123532.0,1767084467.619
2123745.0,1767084467.658
2124359.0,1767084467.698
2124749.0,1767084467.739
2125687.0,1767084467.778
2126197.0,1767084467.819
2126897.0,1767084467.859
2125976.0,1767084467.898
2124288.0,1767084467.938
2122765.0,1767084467.979
2121624.0,1767084468.019
2120869.0,1767084468.058
2120722.0,1767084468.1
2120668.0,1767084468.139
2120761.0,1767084468.179
2120252.0,1767084468.221
2120250.0,1767084468.259
2120718.0,1767084468.299
2120841.0,1767084468.34
2121505.0,1767084468.379
2122041.0,1767084468.42
2122826.0,1767084468.46
2123221.0,1767084468.499
2122292.0,1767084468.539
2120383.0,1767084468.581
2118570.0,1767084468.62
2117177.0,1767084468.66
2115854.0,1767084468.701
2115453.0,1767084468.74
2114448.0,1767084468.78
2113735.0,1767084468.822
2113188.0,1767084468.86
2112536.0,1767084468.9
2112540.0,1767084468.941
2112872.0,1767084468.98
2113006.0,1767084469.021
2113546.0,1767084469.061
2113971.0,1767084469.101
2114616.0,1767084469.141
2115059.0,1767084469.182
2114500.0,1767084469.221
2112723.0,1767084469.261
2110668.0,1767084469.302
2108933.0,1767084469.341
2107394.0,1767084469.381
2106134.0,1767084469.423
2105457.0,1767084469.461
2104820.0,1767084469.501
2104162.0,1767084469.542
2103399.0,1767084469.582
2103030.0,1767084469.663
2103201.0,1767084469.622
2103044.0,1767084469.702
2103318.0,1767084469.742
2103733.0,1767084469.783
2104108.0,1767084469.823
2104322.0,1767084469.862
2104996.0,1767084469.903
2105562.0,1767084469.942
2105905.0,1767084469.983
2105072.0,1767084470.024
2102811.0,1767084470.063
2100985.0,1767084470.103
2099365.0,1767084470.144
2097792.0,1767084470.183
2097265.0,1767084470.224
2096990.0,1767084470.264
2096234.0,1767084470.303
2095726.0,1767084470.39
2095477.0,1767084470.431
2095455.0,1767084470.471
2095543.0,1767084470.51
2095786.0,1767084470.552
2096389.0,1767084470.591
2096798.0,1767084470.631
2097308.0,1767084470.673
2098341.0,1767084470.711
2098836.0,1767084470.751
2100139.0,1767084470.792
2099844.0,1767084470.831
2098531.0,1767084470.872
2097483.0,1767084470.912
2096259.0,1767084470.951
2095381.0,1767084470.992
2093930.0,1767084471.033
2093289.0,1767084471.072
2092331.0,1767084471.112
2090801.0,1767084471.153
2088609.0,1767084471.192
2085520.0,1767084471.232
2081326.0,1767084471.274
2074605.0,1767084471.312
2070121.0,1767084471.352
2068053.0,1767084471.393
2069369.0,1767084471.432
2071447.0,1767084471.473
2073713.0,1767084471.514
2075733.0,1767084471.553
2077957.0,1767084471.593
2078977.0,1767084471.634
2079145.0,1767084471.674
2079137.0,1767084471.713
2078860.0,1767084471.754
2078323.0,1767084471.793
2077982.0,1767084471.833
2077588.0,1767084471.875
2077218.0,1767084471.914
2077113.0,1767084471.954
2077399.0,1767084471.995
2077706.0,1767084472.034
2078107.0,1767084472.075
2078449.0,1767084472.115
2078614.0,1767084472.154
2079054.0,1767084472.194
2080044.0,1767084472.235
2080272.0,1767084472.275
2079136.0,1767084472.315
2077400.0,1767084472.356
2076055.0,1767084472.395
2074866.0,1767084472.435
2074002.0,1767084472.477
2073713.0,1767084472.515
2073461.0,1767084472.555
2073165.0,1767084472.596
2072893.0,1767084472.635
2072932.0,1767084472.676
2073208.0,1767084472.717
2073494.0,1767084472.756
2074016.0,1767084472.796
2074526.0,1767084472.837
2075022.0,1767084472.877
2075880.0,1767084472.916
2076794.0,1767084472.957
2077259.0,1767084472.996
2076772.0,1767084473.036
2075132.0,1767084473.078
2073908.0,1767084473.116
2073268.0,1767084473.156
2072828.0,1767084473.198
2072145.0,1767084473.237
2071274.0,1767084473.277
2070585.0,1767084473.318
2071210.0,1767084473.357
2072952.0,1767084473.397
2074491.0,1767084473.438
2075810.0,1767084473.478
2076713.0,1767084473.517
2077222.0,1767084473.558
2078157.0,1767084473.598
2078780.0,1767084473.638
2079608.0,1767084473.679
2080400.0,1767084473.718
2081209.0,1767084473.758
2081154.0,1767084473.799
2079182.0,1767084473.838
2077642.0,1767084473.879
2076286.0,1767084473.919
2075268.0,1767084473.958
2074716.0,1767084473.998
2074404.0,1767084474.039
2074343.0,1767084474.079
2073934.0,1767084474.119
2074044.0,1767084474.16
2074131.0,1767084474.199
2074562.0,1767084474.239
2074907.0,1767084474.281
2075313.0,1767084474.319
2075790.0,1767084474.359
2076680.0,1767084474.4
2077169.0,1767084474.44
2078208.0,1767084474.48
2079041.0,1767084474.521
2079867.0,1767084474.56
2078939.0,1767084474.6
2077530.0,1767084474.641
2076045.0,1767084474.681
2074792.0,1767084474.72
2073892.0,1767084474.754
2073462.0,1767084474.792
2073326.0,1767084474.83
2073023.0,1767084474.872
2072619.0,1767084474.911
2072777.0,1767084474.951
2072907.0,1767084474.992
2073342.0,1767084475.031
2073913.0,1767084475.072
2074554.0,1767084475.113
2075017.0,1767084475.152
2075816.0,1767084475.19
2076606.0,1767084475.232
2077364.0,1767084475.262
2076712.0,1767084475.302
2074781.0,1767084475.343
2072923.0,1767084475.382
2072049.0,1767084475.422
2071720.0,1767084475.464
2072265.0,1767084475.502
2073004.0,1767084475.542
2073560.0,1767084475.583
2073745.0,1767084475.623
2074117.0,1767084475.663
2074175.0,1767084475.704
2074644.0,1767084475.743
2075020.0,1767084475.783
2075596.0,1767084475.824
2076379.0,1767084475.864
2077254.0,1767084475.903
2078268.0,1767084475.944
2077595.0,1767084475.984
2076246.0,1767084476.022
2074806.0,1767084476.057
2073646.0,1767084476.096
2073001.0,1767084476.132
2072546.0,1767084476.171
2072171.0,1767084476.21
2072083.0,1767084476.251
2071711.0,1767084476.292
2071728.0,1767084476.331
2072220.0,1767084476.371
2072567.0,1767084476.413
2072799.0,1767084476.453
2073648.0,1767084476.491
2074139.0,1767084476.532
2075086.0,1767084476.571
2075693.0,1767084476.611
2075745.0,1767084476.653
2074156.0,1767084476.691
2072592.0,1767084476.731
2071284.0,1767084476.772
2070192.0,1767084476.811
2069427.0,1767084476.852
2069374.0,1767084476.892
2068787.0,1767084476.931
2068527.0,1767084476.971
2068255.0,1767084477.013
2068231.0,1767084477.052
2068581.0,1767084477.092
2068952.0,1767084477.133
2069331.0,1767084477.172
2069891.0,1767084477.212
2070491.0,1767084477.254
2071296.0,1767084477.292
2072065.0,1767084477.331
2071444.0,1767084477.372
2069025.0,1767084477.411
2064519.0,1767084477.452
2057180.0,1767084477.493
2050227.0,1767084477.532
2045332.0,1767084477.572
2043906.0,1767084477.614
2047174.0,1767084477.651
2045208.0,1767084477.691
2042748.0,1767084477.724
2040658.0,1767084477.763
2039811.0,1767084477.803
2040110.0,1767084477.845
2043135.0,1767084477.884
2048100.0,1767084477.924
2052542.0,1767084477.965
2055591.0,1767084478.004
2057404.0,1767084478.045
2058687.0,1767084478.085
2058428.0,1767084478.124
2058427.0,1767084478.164
2058141.0,1767084478.205
2057872.0,1767084478.245
2057838.0,1767084478.285
2058548.0,1767084478.326
2059208.0,1767084478.365
2059993.0,1767084478.405
2060534.0,1767084478.448
2061178.0,1767084478.484
2062200.0,1767084478.519
2063889.0,1767084478.56
2065073.0,1767084478.594
2066286.0,1767084478.633
2067926.0,1767084478.674
2069512.0,1767084478.713
2071041.0,1767084478.753
2071136.0,1767084478.795
2070369.0,1767084478.834
2069694.0,1767084478.874
2069784.0,1767084478.915
2070162.0,1767084478.948
2070912.0,1767084478.988
2071607.0,1767084479.03
2072119.0,1767084479.068
2072652.0,1767084479.109
2072967.0,1767084479.15
2073836.0,1767084479.189
2074559.0,1767084479.23
2075556.0,1767084479.27
2076719.0,1767084479.309
2077651.0,1767084479.349
2078421.0,1767084479.39
2078673.0,1767084479.43
2076858.0,1767084479.47
2072388.0,1767084479.511
2068039.0,1767084479.55
2064099.0,1767084479.59
2062767.0,1767084479.632
2064288.0,1767084479.671
2062034.0,1767084479.711
2061114.0,1767084479.753
2058200.0,1767084479.792
2056197.0,1767084479.833
2057631.0,1767084479.874
2064173.0,1767084479.913
2067194.0,1767084479.953
2068961.0,1767084479.995
2070803.0,1767084480.035
2071487.0,1767084480.074
2071268.0,1767084480.116
2070422.0,1767084480.155
2069769.0,1767084480.194
2069869.0,1767084480.236
2069718.0,1767084480.274
2070373.0,1767084480.314
2070998.0,1767084480.355
2071656.0,1767084480.394
2072265.0,1767084480.435
2073220.0,1767084480.476
2074463.0,1767084480.515
2075814.0,1767084480.555
2076943.0,1767084480.596
2078246.0,1767084480.636
2079427.0,1767084480.675
2080903.0,1767084480.716
2081316.0,1767084480.755
2080420.0,1767084480.795
2079872.0,1767084480.837
2078900.0,1767084480.875
2078485.0,1767084480.915
2078032.0,1767084480.957
2078219.0,1767084480.996
2078332.0,1767084481.036
2078621.0,1767084481.077
2078743.0,1767084481.116
2079354.0,1767084481.156
2079964.0,1767084481.197
2080868.0,1767084481.237
2081643.0,1767084481.277
2082704.0,1767084481.317
2083921.0,1767084481.354
2085080.0,1767084481.393
2086249.0,1767084481.427
2087126.0,1767084481.466
2086838.0,1767084481.506
2086239.0,1767084481.547
2085089.0,1767084481.586
2082526.0,1767084481.627
2078902.0,1767084481.667
2075048.0,1767084481.706
2071614.0,1767084481.746
2068812.0,1767084481.787
2065249.0,1767084481.827
2063145.0,1767084481.867
2061970.0,1767084481.908
2063650.0,1767084481.947
2066868.0,1767084481.987
2070178.0,1767084482.029
2073364.0,1767084482.067
2074669.0,1767084482.1
2075728.0,1767084482.141
2077261.0,1767084482.176
2078854.0,1767084482.214
2080016.0,1767084482.255
2079820.0,1767084482.294
2079223.0,1767084482.333
2079223.0,1767084482.372
2079257.0,1767084482.411
2079361.0,1767084482.45
2079993.0,1767084482.489
2080739.0,1767084482.528
2081521.0,1767084482.567
2081919.0,1767084482.606
2082748.0,1767084482.645
2083696.0,1767084482.684
2084626.0,1767084482.723
2085821.0,1767084482.762
2086862.0,1767084482.801
2088153.0,1767084482.84
2089070.0,1767084482.879
2089735.0,1767084482.996
2090341.0,1767084482.957
2089112.0,1767084483.035
2090207.0,1767084482.918
2088806.0,1767084483.074
2089060.0,1767084483.113
2089478.0,1767084483.152
2089718.0,1767084483.191
2090106.0,1767084483.23
2090526.0,1767084483.269
2092098.0,1767084483.347
2092980.0,1767084483.386
2094160.0,1767084483.425
2091239.0,1767084483.308
2097683.0,1767084483.542
2098605.0,1767084483.581
2097656.0,1767084483.62
2096644.0,1767084483.503
2092168.0,1767084483.659
2095262.0,1767084483.464
2086916.0,1767084483.698
2078321.0,1767084483.776
2075257.0,1767084483.815
2082551.0,1767084483.737
2075257.0,1767084483.854
2074997.0,1767084483.893
2075944.0,1767084483.932
2075326.0,1767084483.971
2075539.0,1767084484.01
2077193.0,1767084484.049
2079393.0,1767084484.088
2080162.0,1767084484.127
2080530.0,1767084484.166
2080466.0,1767084484.205
2078838.0,1767084484.244
2077392.0,1767084484.283
2075567.0,1767084484.322
2072568.0,1767084484.361
2070196.0,1767084484.4
2069612.0,1767084484.439
2069902.0,1767084484.478
2070259.0,1767084484.517
2070911.0,1767084484.556
2071889.0,1767084484.595
2072661.0,1767084484.634
2072870.0,1767084484.673
2072146.0,1767084484.712
2074832.0,1767084484.751
2076225.0,1767084484.79
2077362.0,1767084484.829
2077561.0,1767084484.868
2076980.0,1767084484.907
2077399.0,1767084484.985
2081999.0,1767084485.063
2083021.0,1767084485.102
2083244.0,1767084485.141
2080392.0,1767084485.024
2076994.0,1767084484.946
2084625.0,1767084485.219
2083525.0,1767084485.18
2086265.0,1767084485.258
2087682.0,1767084485.297
2093235.0,1767084485.414
2095483.0,1767084485.453
2089230.0,1767084485.336
2091094.0,1767084485.375
2097549.0,1767084485.493
2099837.0,1767084485.533
2102003.0,1767084485.573
2104258.0,1767084485.613
2106643.0,1767084485.653
2109142.0,1767084485.693
2111396.0,1767084485.733
2112725.0,1767084485.773
2113497.0,1767084485.813
2114378.0,1767084485.853
2115782.0,1767084485.893
2117127.0,1767084485.933
2118979.0,1767084485.973
2120623.0,1767084486.013
2121961.0,1767084486.053
2123023.0,1767084486.093
2124275.0,1767084486.133
2125626.0,1767084486.173
2126945.0,1767084486.213
2127915.0,1767084486.253
2129125.0,1767084486.293
2130247.0,1767084486.333
2131612.0,1767084486.373
2132132.0,1767084486.413
2131766.0,1767084486.453
2131443.0,1767084486.493
2131049.0,1767084486.533
2130412.0,1767084486.573
2128139.0,1767084486.613
2126109.0,1767084486.653
2123930.0,1767084486.693
2124026.0,1767084486.733
2125973.0,1767084486.773
2125266.0,1767084486.813
2125085.0,1767084486.853
2123907.0,1767084486.893
2123252.0,1767084486.933
2124180.0,1767084486.973
2126861.0,1767084487.013
2129172.0,1767084487.053
2129469.0,1767084487.093
2129543.0,1767084487.133
2128997.0,1767084487.173
2129096.0,1767084487.213
2129248.0,1767084487.253
2129518.0,1767084487.293
2129735.0,1767084487.333
2130013.0,1767084487.373
2130003.0,1767084487.413
2130437.0,1767084487.453
2130902.0,1767084487.493
2131464.0,1767084487.533
2131992.0,1767084487.573
2132703.0,1767084487.613
2133320.0,1767084487.653
2133861.0,1767084487.693
2133106.0,1767084487.733
2131846.0,1767084487.773
2130711.0,1767084487.813
2129814.0,1767084487.853
2129107.0,1767084487.893
2128700.0,1767084487.933
2128635.0,1767084487.973
2128247.0,1767084488.013
2128025.0,1767084488.053
2127875.0,1767084488.093
2128051.0,1767084488.133
2128106.0,1767084488.173
2128851.0,1767084488.253
2128442.0,1767084488.213
2129355.0,1767084488.293
2130018.0,1767084488.333
2130721.0,1767084488.373
2130946.0,1767084488.413
2129854.0,1767084488.453
2128260.0,1767084488.493
2127263.0,1767084488.533
2126456.0,1767084488.573
2125824.0,1767084488.613
2126159.0,1767084488.653
2126221.0,1767084488.693
2126245.0,1767084488.733
2126162.0,1767084488.773
2126676.0,1767084488.813
2127084.0,1767084488.853
2127729.0,1767084488.893
2128329.0,1767084488.933
2129358.0,1767084488.973
2130176.0,1767084489.013
2131025.0,1767084489.053
2131989.0,1767084489.093
2133121.0,1767084489.133
2134259.0,1767084489.173
2134266.0,1767084489.213
2133335.0,1767084489.253
2132182.0,1767084489.293
2131316.0,1767084489.333
2130226.0,1767084489.373
2129858.0,1767084489.413
2129799.0,1767084489.453
2129664.0,1767084489.493
2129569.0,1767084489.533
2129537.0,1767084489.573
2129329.0,1767084489.613
2129704.0,1767084489.653
2129983.0,1767084489.693
2130397.0,1767084489.733
2130864.0,1767084489.773
2131193.0,1767084489.813
2132011.0,1767084489.853
2132886.0,1767084489.893
2133386.0,1767084489.933
2132796.0,1767084489.973
2131458.0,1767084490.013
2130387.0,1767084490.053
2129391.0,1767084490.093
2129130.0,1767084490.133
2128704.0,1767084490.173
2128584.0,1767084490.213
2128433.0,1767084490.253
2128153.0,1767084490.293
2127999.0,1767084490.333
2128353.0,1767084490.373
2128988.0,1767084490.413
2129510.0,1767084490.453
2129720.0,1767084490.493
2130104.0,1767084490.533
2130838.0,1767084490.573
2131621.0,1767084490.613
2132150.0,1767084490.653
2131877.0,1767084490.693
2130328.0,1767084490.733
2129237.0,1767084490.773
2128493.0,1767084490.813
2128096.0,1767084490.853
2127862.0,1767084490.893
2127541.0,1767084490.933
2126817.0,1767084490.973
2126332.0,1767084491.013
2126579.0,1767084491.053
2127103.0,1767084491.093
2127402.0,1767084491.133
2128053.0,1767084491.173
2128773.0,1767084491.213
2129137.0,1767084491.253
2129385.0,1767084491.293
2129329.0,1767084491.333
2127929.0,1767084491.373
2126510.0,1767084491.413
2125727.0,1767084491.453
2125349.0,1767084491.493
2125533.0,1767084491.533
2125981.0,1767084491.573
2126195.0,1767084491.613
2126390.0,1767084491.653
2126701.0,1767084491.693
2127559.0,1767084491.733
2128386.0,1767084491.773
2128937.0,1767084491.813
2130080.0,1767084491.853
2130871.0,1767084491.893
2131904.0,1767084491.933
2132216.0,1767084491.973
2130626.0,1767084492.013
2128930.0,1767084492.053
2127416.0,1767084492.093
2126765.0,1767084492.133
2126306.0,1767084492.173
2126224.0,1767084492.213
2126381.0,1767084492.253
2126434.0,1767084492.293
2126177.0,1767084492.333
2126460.0,1767084492.373
2126640.0,1767084492.413
2127086.0,1767084492.453
2127747.0,1767084492.493
2128042.0,1767084492.533
2128628.0,1767084492.573
2128528.0,1767084492.613
2127130.0,1767084492.653
2124624.0,1767084492.693
2122770.0,1767084492.733
2121114.0,1767084492.773
2119619.0,1767084492.813
2118588.0,1767084492.853
2118012.0,1767084492.893
2117090.0,1767084492.933
2116152.0,1767084492.973
2115737.0,1767084493.013
2115147.0,1767084493.053
2114915.0,1767084493.093
2114995.0,1767084493.133
2115447.0,1767084493.173
2115948.0,1767084493.213
2116968.0,1767084493.253
2117797.0,1767084493.293
2117616.0,1767084493.333
2115334.0,1767084493.373
2112622.0,1767084493.413
2110462.0,1767084493.453
2108761.0,1767084493.493
2107464.0,1767084493.533
2106901.0,1767084493.573
2106640.0,1767084493.613
2106640.0,1767084493.653
2106282.0,1767084493.693
2106201.0,1767084493.733
2106355.0,1767084493.773
2106657.0,1767084493.813
2106725.0,1767084493.853
2106408.0,1767084493.893
2106535.0,1767084493.933
2106934.0,1767084493.973
2107695.0,1767084494.013
2108730.0,1767084494.053
2110221.0,1767084494.093
2110866.0,1767084494.133
2110140.0,1767084494.173
2107979.0,1767084494.213
2106587.0,1767084494.252
2105745.0,1767084494.294
2104928.0,1767084494.333
2105042.0,1767084494.373
2105414.0,1767084494.414
2105179.0,1767084494.453
2105427.0,1767084494.493
2105625.0,1767084494.535
2107168.0,1767084494.614
2108136.0,1767084494.655
2109315.0,1767084494.694
2110374.0,1767084494.736
2106002.0,1767084494.573
2111724.0,1767084494.776
2112972.0,1767084494.816
2113701.0,1767084494.854
2112808.0,1767084494.883
2111390.0,1767084494.922
2110457.0,1767084494.962
2110232.0,1767084495.003
2110086.0,1767084495.042
2110796.0,1767084495.082
2110769.0,1767084495.124
2110782.0,1767084495.162
2111015.0,1767084495.202
2111115.0,1767084495.244
2111572.0,1767084495.283
2112285.0,1767084495.323
2113301.0,1767084495.364
2114311.0,1767084495.403
2115533.0,1767084495.443
2116248.0,1767084495.484
2115900.0,1767084495.524
2114190.0,1767084495.563
2112648.0,1767084495.604
2111325.0,1767084495.642
2110678.0,1767084495.681
2110482.0,1767084495.722
2110544.0,1767084495.8
2110595.0,1767084495.842
2110442.0,1767084495.76
2113302.0,1767084496.15
2113539.0,1767084496.11
2111626.0,1767084496.191
2112541.0,1767084496.081
2110779.0,1767084495.922
2111650.0,1767084496.042
2111143.0,1767084496.001
2111050.0,1767084495.962
2110806.0,1767084495.881
2109899.0,1767084496.23
2108709.0,1767084496.27
2108145.0,1767084496.312
2108006.0,1767084496.35
2108232.0,1767084496.39
2108502.0,1767084496.431
2108869.0,1767084496.47
2109364.0,1767084496.511
2110018.0,1767084496.552
2110859.0,1767084496.591
2111304.0,1767084496.631
2111709.0,1767084496.672
2112276.0,1767084496.712
2112984.0,1767084496.751
2113558.0,1767084496.792
2110371.0,1767084496.868
2106987.0,1767084496.979
2107637.0,1767084496.942
2108679.0,1767084496.91
2112390.0,1767084496.832
2106703.0,1767084497.021
2106655.0,1767084497.06
2106407.0,1767084497.101
2106032.0,1767084497.141
2105930.0,1767084497.18
2106027.0,1767084497.221
2106309.0,1767084497.262
2106719.0,1767084497.302
2106719.0,1767084497.338
2107146.0,1767084497.379
2107726.0,1767084497.418
2108367.0,1767084497.458
2108621.0,1767084497.5
2108169.0,1767084497.538
2102756.0,1767084497.578
2091706.0,1767084497.62
2082096.0,1767084497.659
2075584.0,1767084497.699
2074628.0,1767084497.74
2075852.0,1767084497.779
2075636.0,1767084497.819
2075575.0,1767084497.86
2075175.0,1767084497.899
2074751.0,1767084497.939
2075081.0,1767084497.98
2076075.0,1767084498.018
2078273.0,1767084498.057
2080192.0,1767084498.098
2081840.0,1767084498.134
2083116.0,1767084498.169
2083783.0,1767084498.211
2084704.0,1767084498.243
2085925.0,1767084498.284
2087143.0,1767084498.322
2087257.0,1767084498.361
2086485.0,1767084498.402
2085074.0,1767084498.443
2084074.0,1767084498.483
2083242.0,1767084498.523
2082811.0,1767084498.563
2082449.0,1767084498.599
2082405.0,1767084498.639
2082197.0,1767084498.681
2082064.0,1767084498.719
2082364.0,1767084498.759
2082882.0,1767084498.8
2083364.0,1767084498.84
2084151.0,1767084498.88
2084793.0,1767084498.921
2085491.0,1767084498.96
2086410.0,1767084499.0
2087610.0,1767084499.041
2088816.0,1767084499.081
2088866.0,1767084499.12
2087757.0,1767084499.161
2086237.0,1767084499.2
2084980.0,1767084499.24
2083835.0,1767084499.283
2083516.0,1767084499.322
2083379.0,1767084499.362
2083483.0,1767084499.403
2083232.0,1767084499.442
2083180.0,1767084499.483
2083839.0,1767084499.524
2084326.0,1767084499.562
2085343.0,1767084499.6
2085927.0,1767084499.641
2086869.0,1767084499.681
2087765.0,1767084499.721
2088965.0,1767084499.763
2090287.0,1767084499.795
2091183.0,1767084499.836
2090689.0,1767084499.877
2089696.0,1767084499.916
2089367.0,1767084499.956
2089363.0,1767084499.997
2089311.0,1767084500.036
2089635.0,1767084500.077
2089714.0,1767084500.117
2090039.0,1767084500.156
2090164.0,1767084500.196
2090869.0,1767084500.238
2091562.0,1767084500.277
2092291.0,1767084500.317
2093354.0,1767084500.358
2094195.0,1767084500.397
2095619.0,1767084500.437
2096837.0,1767084500.479
2097148.0,1767084500.518
2096229.0,1767084500.559
2095407.0,1767084500.6
2094558.0,1767084500.638
2094508.0,1767084500.677
2094558.0,1767084500.718
2094823.0,1767084500.753
2095046.0,1767084500.793
2095333.0,1767084500.828
2095947.0,1767084500.865
2096505.0,1767084500.902
2096979.0,1767084500.943
2097633.0,1767084500.982
2098463.0,1767084501.023
2099405.0,1767084501.064
2100143.0,1767084501.103
2100145.0,1767084501.143
2098836.0,1767084501.184
2097320.0,1767084501.223
2096274.0,1767084501.264
2095748.0,1767084501.304
2095587.0,1767084501.343
2095454.0,1767084501.383
2095646.0,1767084501.424
2095760.0,1767084501.464
2096037.0,1767084501.504
2096447.0,1767084501.545
2097374.0,1767084501.584
2098129.0,1767084501.624
2098835.0,1767084501.666
2099555.0,1767084501.704
2100520.0,1767084501.744
2100974.0,1767084501.783
2097892.0,1767084501.823
2085634.0,1767084501.864
2073003.0,1767084501.904
2063963.0,1767084501.943
2060377.0,1767084501.984
2064981.0,1767084502.025
2067976.0,1767084502.065
2068224.0,1767084502.105
2067309.0,1767084502.146
2063323.0,1767084502.183
2059469.0,1767084502.223
2058319.0,1767084502.265
2061244.0,1767084502.303
2066774.0,1767084502.343
2070745.0,1767084502.384
2072950.0,1767084502.423
2074471.0,1767084502.464
2076194.0,1767084502.504
2077322.0,1767084502.543
2077125.0,1767084502.583
2076517.0,1767084502.625
2076337.0,1767084502.664
2075913.0,1767084502.704
2076102.0,1767084502.745
2076553.0,1767084502.784
2076871.0,1767084502.824
2077163.0,1767084502.866
2077277.0,1767084502.904
2077852.0,1767084502.944
2078495.0,1767084502.986
2079506.0,1767084503.025
2080256.0,1767084503.066
2081473.0,1767084503.104
2082349.0,1767084503.143
2083450.0,1767084503.184
2084742.0,1767084503.225
2085078.0,1767084503.265
2084389.0,1767084503.305
2083164.0,1767084503.346
2082305.0,1767084503.385
2081728.0,1767084503.423
2081608.0,1767084503.466
2082002.0,1767084503.504
2081736.0,1767084503.544
2081726.0,1767084503.585
2081797.0,1767084503.625
2081940.0,1767084503.665
2082357.0,1767084503.706
2083232.0,1767084503.745
2084001.0,1767084503.785
2084896.0,1767084503.826
2085689.0,1767084503.866
2086849.0,1767084503.905
2087051.0,1767084503.946
2083890.0,1767084503.985
2079395.0,1767084504.025
2075589.0,1767084504.067
2072770.0,1767084504.105
2070522.0,1767084504.145
2068771.0,1767084504.187
2066113.0,1767084504.226
2063571.0,1767084504.266
2063462.0,1767084504.307
2064210.0,1767084504.346
2066771.0,1767084504.386
2070310.0,1767084504.427
2074031.0,1767084504.467
2075455.0,1767084504.506
2077666.0,1767084504.586
2076738.0,1767084504.547
2075867.0,1767084504.668
2076883.0,1767084504.626
2075118.0,1767084504.706
2074915.0,1767084504.747
2075306.0,1767084504.788
2076769.0,1767084504.868
2076048.0,1767084504.827
2077528.0,1767084504.908
2078054.0,1767084504.947
2078667.0,1767084504.987
2079090.0,1767084505.028
2079475.0,1767084505.068
2080093.0,1767084505.107
2080627.0,1767084505.149
2081641.0,1767084505.188
2082534.0,1767084505.228
2082490.0,1767084505.269
2081061.0,1767084505.308
2079729.0,1767084505.348
2078332.0,1767084505.389
2077330.0,1767084505.428
2076631.0,1767084505.469
2076557.0,1767084505.509
2076692.0,1767084505.548
2076636.0,1767084505.588
2077043.0,1767084505.629
2077428.0,1767084505.669
2078026.0,1767084505.709
2078952.0,1767084505.75
2079798.0,1767084505.789
2080648.0,1767084505.829
2081486.0,1767084505.871
2082164.0,1767084505.909
2082875.0,1767084505.949
2082765.0,1767084505.99
2081471.0,1767084506.029
2080387.0,1767084506.07
2079778.0,1767084506.11
2079261.0,1767084506.149
2079210.0,1767084506.185
2079604.0,1767084506.226
2080397.0,1767084506.265
2081323.0,1767084506.305
2082563.0,1767084506.346
2083603.0,1767084506.385
2084977.0,1767084506.425
2085747.0,1767084506.467
2086724.0,1767084506.505
2087735.0,1767084506.545
2088887.0,1767084506.586
2089978.0,1767084506.625
2090976.0,1767084506.666
2091858.0,1767084506.707
2090944.0,1767084506.743
2089917.0,1767084506.78
2088772.0,1767084506.822
2087670.0,1767084506.862
2087231.0,1767084506.901
2087419.0,1767084506.943
2087332.0,1767084506.982
2087597.0,1767084507.022
2087651.0,1767084507.064
2088137.0,1767084507.102
2088803.0,1767084507.141
2089227.0,1767084507.182
2089977.0,1767084507.221
2090641.0,1767084507.262
2091258.0,1767084507.302
2092751.0,1767084507.381
2092283.0,1767084507.423
2092107.0,1767084507.341
2090838.0,1767084507.462
2089656.0,1767084507.502
2089059.0,1767084507.543
2088559.0,1767084507.582
2088883.0,1767084507.622
2088749.0,1767084507.664
2088959.0,1767084507.702
2088984.0,1767084507.742
2089301.0,1767084507.783
2089777.0,1767084507.822
2090547.0,1767084507.863
2091263.0,1767084507.903
2092726.0,1767084507.983
2093453.0,1767084508.024
2093921.0,1767084508.064
2092047.0,1767084507.942
2093116.0,1767084508.101
2091730.0,1767084508.143
2090894.0,1767084508.182
2090280.0,1767084508.222
2090134.0,1767084508.264
2090176.0,1767084508.303
2090672.0,1767084508.343
2090801.0,1767084508.384
2090960.0,1767084508.423
2091723.0,1767084508.462
2091723.0,1767084508.496
2092724.0,1767084508.575
2094053.0,1767084508.616
2095347.0,1767084508.656
2096804.0,1767084508.695
2097895.0,1767084508.736
2091953.0,1767084508.535
2093889.0,1767084508.857
2097427.0,1767084508.816
2098412.0,1767084508.775
2076973.0,1767084508.936
2071346.0,1767084509.016
2085682.0,1767084508.896
2071173.0,1767084508.977
2075957.0,1767084509.097
2075896.0,1767084509.057
2072514.0,1767084509.136
2067257.0,1767084509.176
2063050.0,1767084509.218
2061181.0,1767084509.255
2062426.0,1767084509.295
2067014.0,1767084509.331
2070302.0,1767084509.365
2074145.0,1767084509.403
2076638.0,1767084509.445
2076391.0,1767084509.484
2075787.0,1767084509.524
2075040.0,1767084509.565
2074876.0,1767084509.604
2075460.0,1767084509.645
2076793.0,1767084509.686
2077841.0,1767084509.722
2079557.0,1767084509.762
2081090.0,1767084509.803
2082851.0,1767084509.843
2084866.0,1767084509.883
2086961.0,1767084509.924
2088839.0,1767084509.963
2090942.0,1767084510.003
2092977.0,1767084510.045
2094884.0,1767084510.083
2096599.0,1767084510.123
2096967.0,1767084510.164
2096733.0,1767084510.203
2096661.0,1767084510.244
2096490.0,1767084510.284
2096677.0,1767084510.323
2097513.0,1767084510.363
2098648.0,1767084510.405
2099839.0,1767084510.444
2100949.0,1767084510.484
2102361.0,1767084510.525
2103763.0,1767084510.564
2105528.0,1767084510.604
2107170.0,1767084510.646
2108913.0,1767084510.684
2110681.0,1767084510.724
2112887.0,1767084510.765
2113975.0,1767084510.804
2113453.0,1767084510.845
2112964.0,1767084510.885
2112813.0,1767084510.925
2112863.0,1767084510.965
2113123.0,1767084511.006
2114309.0,1767084511.045
2114879.0,1767084511.085
2115620.0,1767084511.126
2116005.0,1767084511.165
2116777.0,1767084511.205
2117820.0,1767084511.247
2118966.0,1767084511.285
2120034.0,1767084511.325
2121220.0,1767084511.367
2122425.0,1767084511.406
2123985.0,1767084511.446
2123911.0,1767084511.486
2123278.0,1767084511.525
2123047.0,1767084511.565
2123115.0,1767084511.606
2123293.0,1767084511.646
2124416.0,1767084511.686
2125120.0,1767084511.727
2126149.0,1767084511.766
2127102.0,1767084511.806
2128251.0,1767084511.846
2129030.0,1767084511.875
2130418.0,1767084511.915
2131613.0,1767084511.956
2132870.0,1767084511.995
2134345.0,1767084512.036
2135677.0,1767084512.077
2136043.0,1767084512.116
2135267.0,1767084512.156
2134760.0,1767084512.197
2134497.0,1767084512.237
2134904.0,1767084512.276
2135371.0,1767084512.317
2135722.0,1767084512.356
2136216.0,1767084512.396
2136377.0,1767084512.438
2137063.0,1767084512.476
2137979.0,1767084512.516
2138614.0,1767084512.558
2139657.0,1767084512.598
2140835.0,1767084512.635
2142025.0,1767084512.666
2142995.0,1767084512.705
2143978.0,1767084512.745
2143183.0,1767084512.787
2142095.0,1767084512.826
2141231.0,1767084512.866
2140626.0,1767084512.905
2140141.0,1767084512.944
2139717.0,1767084512.985
2139023.0,1767084513.027
2135087.0,1767084513.065
2128275.0,1767084513.103
2122713.0,1767084513.144
2120194.0,1767084513.183
2120375.0,1767084513.224
2120623.0,1767084513.265
2120372.0,1767084513.304
2120502.0,1767084513.344
2122406.0,1767084513.385
2125976.0,1767084513.425
2128408.0,1767084513.464
2128278.0,1767084513.505
2127110.0,1767084513.544
2125966.0,1767084513.584
2124729.0,1767084513.626
2124315.0,1767084513.664
2124720.0,1767084513.704
2125487.0,1767084513.745
2126060.0,1767084513.784
2126756.0,1767084513.825
2128026.0,1767084513.866
2129319.0,1767084513.905
2130293.0,1767084513.945
2131538.0,1767084513.987
2132806.0,1767084514.027
2134014.0,1767084514.066
2135217.0,1767084514.107
2136425.0,1767084514.147
2138195.0,1767084514.187
2138745.0,1767084514.227
2138470.0,1767084514.265
2137857.0,1767084514.306
2137857.0,1767084514.342
2137882.0,1767084514.381
2137852.0,1767084514.422
2138324.0,1767084514.462
2138924.0,1767084514.501
2139678.0,1767084514.541
2140233.0,1767084514.582
2140881.0,1767084514.622
2141613.0,1767084514.662
2142506.0,1767084514.703
2143640.0,1767084514.742
2144503.0,1767084514.782
2145636.0,1767084514.824
2146668.0,1767084514.862
2147386.0,1767084514.902
2148523.0,1767084514.943
2149249.0,1767084514.982
2148559.0,1767084515.023
2147443.0,1767084515.064
2146742.0,1767084515.103
2146142.0,1767084515.143
2145754.0,1767084515.184
2146171.0,1767084515.224
2146409.0,1767084515.263
2146715.0,1767084515.304
2146697.0,1767084515.343
2144795.0,1767084515.384
2141264.0,1767084515.425
2137584.0,1767084515.464
2133171.0,1767084515.504
2128001.0,1767084515.545
2123808.0,1767084515.584
2122275.0,1767084515.625
2121094.0,1767084515.665
2116907.0,1767084515.704
2112425.0,1767084515.744
2108487.0,1767084515.785
2106835.0,1767084515.825
2107567.0,1767084515.865
2109031.0,1767084515.906
2111633.0,1767084515.945
2113333.0,1767084515.985
2114942.0,1767084516.027
2116433.0,1767084516.065
2117910.0,1767084516.105
2118647.0,1767084516.146
2117095.0,1767084516.185
2112736.0,1767084516.227
2109953.0,1767084516.268
2108282.0,1767084516.307
2110095.0,1767084516.346
2112017.0,1767084516.388
2112805.0,1767084516.427
2113331.0,1767084516.467
2114327.0,1767084516.508
2115158.0,1767084516.548
2116061.0,1767084516.588
2117009.0,1767084516.63
2118015.0,1767084516.668
2118450.0,1767084516.707
2119477.0,1767084516.748
2120365.0,1767084516.787
2121422.0,1767084516.826
2122536.0,1767084516.866
2124027.0,1767084516.905
2125609.0,1767084516.945
2126648.0,1767084516.986
2127377.0,1767084517.026
2126744.0,1767084517.065
2125889.0,1767084517.107
2125565.0,1767084517.146
2124618.0,1767084517.186
2124816.0,1767084517.227
2124751.0,1767084517.266
2124886.0,1767084517.306
2125103.0,1767084517.347
2125694.0,1767084517.386
2126448.0,1767084517.427
2127222.0,1767084517.47
2127200.0,1767084517.509
2125160.0,1767084517.547
2124337.0,1767084517.588
2123379.0,1767084517.628
2120523.0,1767084517.668
2117556.0,1767084517.709
2113058.0,1767084517.748
2109947.0,1767084517.789
2108677.0,1767084517.831
2110597.0,1767084517.869
2112186.0,1767084517.907
2114336.0,1767084517.949
2117873.0,1767084517.988
2120013.0,1767084518.021
2121400.0,1767084518.061
2122817.0,1767084518.1
2124487.0,1767084518.186
2125952.0,1767084518.227
2127511.0,1767084518.267
2129302.0,1767084518.306
2130962.0,1767084518.347
2132282.0,1767084518.386
2133437.0,1767084518.427
2133851.0,1767084518.468
2133230.0,1767084518.507
2132530.0,1767084518.547
2132115.0,1767084518.588
2131739.0,1767084518.627
2132075.0,1767084518.668
2132323.0,1767084518.708
2132908.0,1767084518.747
2133283.0,1767084518.788
2134202.0,1767084518.83
2134761.0,1767084518.867
2135812.0,1767084518.9
2137033.0,1767084518.938
2138213.0,1767084518.975
2139465.0,1767084519.015
2140795.0,1767084519.057
2141860.0,1767084519.096
2142573.0,1767084519.136
2142103.0,1767084519.177
2141355.0,1767084519.216
2140871.0,1767084519.257
2140504.0,1767084519.294
2140931.0,1767084519.333
2141487.0,1767084519.373
2141965.0,1767084519.415
2142623.0,1767084519.454
2142857.0,1767084519.494
2143987.0,1767084519.535
2144910.0,1767084519.574
2146384.0,1767084519.614
2147574.0,1767084519.656
2149056.0,1767084519.694
2150399.0,1767084519.734
2150931.0,1767084519.775
2150405.0,1767084519.814
2149819.0,1767084519.855
2148808.0,1767084519.896
2148582.0,1767084519.935
2148057.0,1767084519.975
2148561.0,1767084520.017
2148733.0,1767084520.057
2149187.0,1767084520.099
2149906.0,1767084520.135
2150787.0,1767084520.174
2151818.0,1767084520.214
2152826.0,1767084520.257
2154364.0,1767084520.295
2155604.0,1767084520.336
2156516.0,1767084520.377
2156982.0,1767084520.416
2155613.0,1767084520.457
2154188.0,1767084520.498
2153410.0,1767084520.53
2152737.0,1767084520.57
2152694.0,1767084520.612
2153063.0,1767084520.651
2153366.0,1767084520.691
2153494.0,1767084520.732
2153632.0,1767084520.771
2154359.0,1767084520.853
2153970.0,1767084520.811
2154913.0,1767084520.891
2155605.0,1767084520.931
2156703.0,1767084520.972
2157271.0,1767084521.012
2157281.0,1767084521.052
2155672.0,1767084521.093
2152970.0,1767084521.172
2154313.0,1767084521.132
2151765.0,1767084521.21
2151603.0,1767084521.251
2151383.0,1767084521.288
2151312.0,1767084521.329
2150906.0,1767084521.363
2150583.0,1767084521.398
2150958.0,1767084521.437
2151084.0,1767084521.476
2151441.0,1767084521.516
2152092.0,1767084521.557
2152530.0,1767084521.597
2151712.0,1767084521.638
2148055.0,1767084521.678
2140436.0,1767084521.717
2140436.0,1767084521.753
2129040.0,1767084521.794
2119364.0,1767084521.834
2116834.0,1767084521.873
2119488.0,1767084521.914
2120146.0,1767084521.953
2117972.0,1767084521.994
2115106.0,1767084522.035
2110613.0,1767084522.074
2106659.0,1767084522.114
2103624.0,1767084522.155
2104463.0,1767084522.194
2108415.0,1767084522.235
2110661.0,1767084522.275
2111940.0,1767084522.314
2112795.0,1767084522.354
2114080.0,1767084522.396
2115387.0,1767084522.435
2115874.0,1767084522.476
2114477.0,1767084522.517
2112416.0,1767084522.556
2110612.0,1767084522.596
2109338.0,1767084522.638
2108570.0,1767084522.676
2108015.0,1767084522.717
2107257.0,1767084522.758
2106951.0,1767084522.797
2106785.0,1767084522.838
2106751.0,1767084522.879
2107249.0,1767084522.918
2107755.0,1767084522.958
2108598.0,1767084522.999
2109303.0,1767084523.039
2109752.0,1767084523.078
2110609.0,1767084523.12
2111576.0,1767084523.159
2112533.0,1767084523.199
2111691.0,1767084523.24
2109222.0,1767084523.279
2107262.0,1767084523.319
2105816.0,1767084523.36
2104209.0,1767084523.399
2103705.0,1767084523.44
2103263.0,1767084523.48
2102560.0,1767084523.519
2102250.0,1767084523.559
2101752.0,1767084523.601
2101526.0,1767084523.64
2101698.0,1767084523.68
2102166.0,1767084523.721
2102671.0,1767084523.759
2102578.0,1767084523.797
2099965.0,1767084523.839
2097476.0,1767084523.877
2093391.0,1767084523.918
2087770.0,1767084523.959
2082485.0,1767084523.998
2079628.0,1767084524.039
2077736.0,1767084524.08
2076196.0,1767084524.119
2074565.0,1767084524.157
2073442.0,1767084524.198
2071668.0,1767084524.229
2070465.0,1767084524.269
2071353.0,1767084524.31
2073005.0,1767084524.349
2072078.0,1767084524.389
2070332.0,1767084524.43
2068530.0,1767084524.469
2066971.0,1767084524.509
2066557.0,1767084524.55
2068811.0,1767084524.589
2070587.0,1767084524.63
2070270.0,1767084524.67
2070257.0,1767084524.709
2069902.0,1767084524.749
2070281.0,1767084524.791
2071160.0,1767084524.83
2071725.0,1767084524.87
2071829.0,1767084524.909
2072672.0,1767084524.94
2073818.0,1767084524.98
2074815.0,1767084525.02
2076034.0,1767084525.059
2077512.0,1767084525.099
2078950.0,1767084525.14
2080514.0,1767084525.179
2081888.0,1767084525.223
2083230.0,1767084525.259
2083646.0,1767084525.298
2082598.0,1767084525.339
2080761.0,1767084525.38
2079535.0,1767084525.421
2078284.0,1767084525.459
2078221.0,1767084525.5
2078561.0,1767084525.539
2078803.0,1767084525.579
2079089.0,1767084525.621
2079651.0,1767084525.659
2080258.0,1767084525.699
2080900.0,1767084525.74
2081939.0,1767084525.779
2083089.0,1767084525.82
2084181.0,1767084525.86
2084891.0,1767084525.899
2085988.0,1767084525.939
2086890.0,1767084525.98
2087388.0,1767084526.02
2086272.0,1767084526.06
2084608.0,1767084526.101
2083550.0,1767084526.14
2081604.0,1767084526.181
2079614.0,1767084526.223
2078820.0,1767084526.259
2079985.0,1767084526.299
2081833.0,1767084526.341
2083296.0,1767084526.38
2084182.0,1767084526.421
2085301.0,1767084526.462
2086337.0,1767084526.501
2087847.0,1767084526.541
2088866.0,1767084526.581
2090260.0,1767084526.62
2091640.0,1767084526.659
2092983.0,1767084526.694
2094524.0,1767084526.733
2095254.0,1767084526.773
2094578.0,1767084526.815
2093272.0,1767084526.854
2092682.0,1767084526.894
2091970.0,1767084526.935
2091936.0,1767084526.974
2092644.0,1767084527.015
2093717.0,1767084527.055
2094588.0,1767084527.094
2095425.0,1767084527.134
2096304.0,1767084527.175
2097012.0,1767084527.215
2098035.0,1767084527.254
2098886.0,1767084527.296
2099732.0,1767084527.335
2101054.0,1767084527.371
2102700.0,1767084527.414
2103709.0,1767084527.446
2103780.0,1767084527.487
2102810.0,1767084527.523
2102349.0,1767084527.559
2101784.0,1767084527.6
2101926.0,1767084527.641
2102648.0,1767084527.68
2103327.0,1767084527.72
2103956.0,1767084527.759
2104845.0,1767084527.799
2105797.0,1767084527.839
2106941.0,1767084527.88
2106941.0,1767084527.915
2108518.0,1767084527.955
2109964.0,1767084527.997
2111468.0,1767084528.035
2112947.0,1767084528.076
2113934.0,1767084528.117
2113655.0,1767084528.156
2112491.0,1767084528.197
2111603.0,1767084528.237
2111113.0,1767084528.276
2111051.0,1767084528.316
2111440.0,1767084528.357
2111900.0,1767084528.397
2112103.0,1767084528.436
2112596.0,1767084528.478
2113397.0,1767084528.517
2114521.0,1767084528.557
2115563.0,1767084528.599
2116865.0,1767084528.638
2118275.0,1767084528.678
2118984.0,1767084528.719
2118103.0,1767084528.759
2116656.0,1767084528.8
2115534.0,1767084528.841
2114922.0,1767084528.88
2114678.0,1767084528.92
2114863.0,1767084528.961
2115399.0,1767084529.001
2115577.0,1767084529.041
2115678.0,1767084529.082
2115989.0,1767084529.121
2116702.0,1767084529.161
2117685.0,1767084529.203
2118992.0,1767084529.241
2120051.0,1767084529.281
2121375.0,1767084529.322
2121880.0,1767084529.362
2120468.0,1767084529.402
2119081.0,1767084529.443
2117769.0,1767084529.482
2116941.0,1767084529.522
2116344.0,1767084529.563
2116533.0,1767084529.603
2116480.0,1767084529.642
2116556.0,1767084529.683
2116473.0,1767084529.722
2116868.0,1767084529.762
2117445.0,1767084529.804
2118304.0,1767084529.842
2119132.0,1767084529.88
2120080.0,1767084529.922
2120905.0,1767084529.961
2121633.0,1767084530.002
2120815.0,1767084530.043
2118699.0,1767084530.082
2116650.0,1767084530.144
2114966.0,1767084530.185
2113021.0,1767084530.264
2113792.0,1767084530.225
2113208.0,1767084530.305
2112478.0,1767084530.344
2112466.0,1767084530.384
2112108.0,1767084530.426
2112198.0,1767084530.464
2112508.0,1767084530.505
2112975.0,1767084530.546
2113436.0,1767084530.585
2114113.0,1767084530.625
2114873.0,1767084530.666
2115873.0,1767084530.705
2116874.0,1767084530.745
2118043.0,1767084530.786
2119301.0,1767084530.826
2118457.0,1767084530.865
2116674.0,1767084530.906
2115456.0,1767084530.946
2113872.0,1767084530.986
2113037.0,1767084531.027
2112661.0,1767084531.063
2112799.0,1767084531.103
2112375.0,1767084531.145
2112248.0,1767084531.184
2112480.0,1767084531.225
2113093.0,1767084531.266
2113597.0,1767084531.305
2114594.0,1767084531.345
2115260.0,1767084531.384
2115984.0,1767084531.424
2117091.0,1767084531.464
2117998.0,1767084531.505
2118992.0,1767084531.545
2119928.0,1767084531.586
2120145.0,1767084531.625
2118381.0,1767084531.663
2116495.0,1767084531.704
2115388.0,1767084531.745
2114402.0,1767084531.784
2113714.0,1767084531.824
2113494.0,1767084531.865
2113688.0,1767084531.904
2113408.0,1767084531.944
2113671.0,1767084531.985
2113414.0,1767084532.025
2113913.0,1767084532.064
2114086.0,1767084532.105
2114808.0,1767084532.145
2115708.0,1767084532.185
2116625.0,1767084532.226
2117373.0,1767084532.265
2118629.0,1767084532.305
2119375.0,1767084532.346
2120378.0,1767084532.385
2119545.0,1767084532.426
2117529.0,1767084532.465
2115918.0,1767084532.504
2114441.0,1767084532.545
2113491.0,1767084532.586
2113118.0,1767084532.626
2112641.0,1767084532.665
2112698.0,1767084532.707
2112612.0,1767084532.786
2112630.0,1767084532.746
2112275.0,1767084532.828
2110565.0,1767084532.862
2108382.0,1767084532.903
2105833.0,1767084532.944
2102557.0,1767084532.983
2100315.0,1767084533.024
2100468.0,1767084533.064
2101574.0,1767084533.103
2102792.0,1767084533.143
2103553.0,1767084533.184
2102614.0,1767084533.224
2100713.0,1767084533.263
2099445.0,1767084533.304
2099569.0,1767084533.343
2100236.0,1767084533.383
2100851.0,1767084533.425
2101445.0,1767084533.464
2101948.0,1767084533.504
2102163.0,1767084533.546
2102788.0,1767084533.585
2103441.0,1767084533.625
2104650.0,1767084533.666
2105990.0,1767084533.705
2107433.0,1767084533.745
2108915.0,1767084533.787
2110345.0,1767084533.827
2111713.0,1767084533.866
2112007.0,1767084533.907
2110991.0,1767084533.947
2110377.0,1767084533.987
2110227.0,1767084534.027
2110120.0,1767084534.061
2110525.0,1767084534.101
2111111.0,1767084534.142
2111381.0,1767084534.181
2112110.0,1767084534.222
2113084.0,1767084534.262
2114414.0,1767084534.301
2115451.0,1767084534.342
2116833.0,1767084534.383
2118614.0,1767084534.422
2119899.0,1767084534.462
2121240.0,1767084534.503
2121029.0,1767084534.542
2119817.0,1767084534.582
2119127.0,1767084534.624
2118867.0,1767084534.662
2119189.0,1767084534.702
2119471.0,1767084534.744
2120127.0,1767084534.783
2120499.0,1767084534.824
2121060.0,1767084534.864
2121905.0,1767084534.904
2124290.0,1767084534.986
2123014.0,1767084534.944
2125230.0,1767084535.026
2126222.0,1767084535.066
2127277.0,1767084535.107
2127869.0,1767084535.146
2126948.0,1767084535.186
2125764.0,1767084535.228
2125395.0,1767084535.266
2125098.0,1767084535.304
2125520.0,1767084535.345
2126030.0,1767084535.384
2126420.0,1767084535.424
2126680.0,1767084535.465
2127164.0,1767084535.504
2127901.0,1767084535.544
2128730.0,1767084535.585
2129848.0,1767084535.625
2130789.0,1767084535.664
2131975.0,1767084535.705
2133002.0,1767084535.744
2132944.0,1767084535.785
2131813.0,1767084535.826
2130665.0,1767084535.865
2130219.0,1767084535.905
2129579.0,1767084535.946
2129773.0,1767084535.986
2129931.0,1767084536.027
2130144.0,1767084536.068
2130661.0,1767084536.106
2130902.0,1767084536.146
2131437.0,1767084536.188
2132216.0,1767084536.228
2132652.0,1767084536.267
2133583.0,1767084536.308
2134170.0,1767084536.348
2135502.0,1767084536.388
2136065.0,1767084536.43
2135175.0,1767084536.466
2133521.0,1767084536.507
2132534.0,1767084536.539
2131449.0,1767084536.578
2130687.0,1767084536.619
2130665.0,1767084536.66
2130651.0,1767084536.699
2130462.0,1767084536.739
2130702.0,1767084536.78
2130816.0,1767084536.82
2131054.0,1767084536.859
2131402.0,1767084536.9
2132124.0,1767084536.939
2132736.0,1767084536.979
2133442.0,1767084537.021
2134121.0,1767084537.059
2134834.0,1767084537.1
2134522.0,1767084537.141
2130809.0,1767084537.18
2124930.0,1767084537.221
2116800.0,1767084537.257
2109220.0,1767084537.29
2105338.0,1767084537.328
2108404.0,1767084537.369
2113154.0,1767084537.409
2111649.0,1767084537.449
2109357.0,1767084537.49
2107698.0,1767084537.529
2107668.0,1767084537.57
2109505.0,1767084537.612
2113174.0,1767084537.648
2117279.0,1767084537.688
2120692.0,1767084537.73
2123043.0,1767084537.769
2125159.0,1767084537.809
2127408.0,1767084537.841
2128485.0,1767084537.88
2128231.0,1767084537.92
2127950.0,1767084537.961
2127749.0,1767084538.001
2127654.0,1767084538.04
2128094.0,1767084538.081
2128567.0,1767084538.12
2128590.0,1767084538.16
2128325.0,1767084538.202
2128772.0,1767084538.24
2129136.0,1767084538.28
2129703.0,1767084538.322
2130126.0,1767084538.361
2131151.0,1767084538.401
2132297.0,1767084538.442
2133649.0,1767084538.481
2134920.0,1767084538.514
2135558.0,1767084538.557
2134806.0,1767084538.591
2134225.0,1767084538.628
2133477.0,1767084538.669
2133552.0,1767084538.708
2133826.0,1767084538.748
2133986.0,1767084538.79
2134122.0,1767084538.829
2133933.0,1767084538.869
2133813.0,1767084538.911
2133601.0,1767084538.95
2133608.0,1767084538.989
2134032.0,1767084539.029
2134598.0,1767084539.068
2134598.0,1767084539.099
2134983.0,1767084539.141
2134900.0,1767084539.18
2134024.0,1767084539.22
2133200.0,1767084539.261
2132320.0,1767084539.3
2131834.0,1767084539.34
2130237.0,1767084539.382
2128073.0,1767084539.42
2123244.0,1767084539.46
2117221.0,1767084539.501
2111190.0,1767084539.54
2109618.0,1767084539.581
2109257.0,1767084539.622
2109358.0,1767084539.661
2110692.0,1767084539.701
2110896.0,1767084539.742
2109719.0,1767084539.782
2108670.0,1767084539.821
2108748.0,1767084539.862
2109473.0,1767084539.901
2110038.0,1767084539.941
2110632.0,1767084539.983
2111589.0,1767084540.022
2111947.0,1767084540.062
2112167.0,1767084540.103
2112116.0,1767084540.142
2112487.0,1767084540.183
2112439.0,1767084540.223
2111798.0,1767084540.262
2110936.0,1767084540.343
2111123.0,1767084540.302
2110597.0,1767084540.383
2110050.0,1767084540.422
2109354.0,1767084540.464
2109248.0,1767084540.543
2108957.0,1767084540.503
2109312.0,1767084540.585
2109446.0,1767084540.623
2109377.0,1767084540.663
2109621.0,1767084540.704
2109844.0,1767084540.743
2110442.0,1767084540.784
2111183.0,1767084540.824
2111840.0,1767084540.863
2112772.0,1767084540.904
2112545.0,1767084540.945
2111264.0,1767084540.984
2109565.0,1767084541.024
2108175.0,1767084541.065
2106997.0,1767084541.104
2106577.0,1767084541.144
2106239.0,1767084541.186
2106177.0,1767084541.224
2104845.0,1767084541.264
2099014.0,1767084541.306
2091997.0,1767084541.345
2086224.0,1767084541.385
2081046.0,1767084541.426
2077644.0,1767084541.465
2079368.0,1767084541.505
2083789.0,1767084541.546
2086182.0,1767084541.586
2088098.0,1767084541.625
2089626.0,1767084541.666
2088703.0,1767084541.705
2084088.0,1767084541.746
2078236.0,1767084541.787
2072321.0,1767084541.826
2066946.0,1767084541.866
2063033.0,1767084541.907
2063630.0,1767084541.946
2068581.0,1767084541.987
2070894.0,1767084542.027
2071890.0,1767084542.066
2072716.0,1767084542.105
2073640.0,1767084542.144
2074339.0,1767084542.183
2075409.0,1767084542.222
2076986.0,1767084542.261
2078206.0,1767084542.3
2079730.0,1767084542.339
2081779.0,1767084542.378
2083854.0,1767084542.417
2085711.0,1767084542.456
2087235.0,1767084542.495
2088313.0,1767084542.534
2089170.0,1767084542.573
2089793.0,1767084542.612
2090238.0,1767084542.651
2090397.0,1767084542.69
2091051.0,1767084542.729
2091665.0,1767084542.768
2092211.0,1767084542.807
2092810.0,1767084542.846
2093953.0,1767084542.885
2094848.0,1767084542.924
2095822.0,1767084542.963
2097296.0,1767084543.002
2098714.0,1767084543.041
2099916.0,1767084543.08
2101104.0,1767084543.119
2102900.0,1767084543.158
2104763.0,1767084543.197
2106619.0,1767084543.236
2108228.0,1767084543.275
2108650.0,1767084543.314
2109188.0,1767084543.353
2109456.0,1767084543.392
2111038.0,1767084543.47
2112325.0,1767084543.509
2110246.0,1767084543.431
2113159.0,1767084543.548
2114429.0,1767084543.587
2115445.0,1767084543.626
2116770.0,1767084543.665
2118047.0,1767084543.704
2120693.0,1767084543.782
2122235.0,1767084543.821
2123182.0,1767084543.86
2124622.0,1767084543.899
2125889.0,1767084543.938
2119654.0,1767084543.743
2127074.0,1767084543.977
2129765.0,1767084544.055
2130154.0,1767084544.094
2130505.0,1767084544.133
2130643.0,1767084544.172
2128642.0,1767084544.211
2125101.0,1767084544.25
2121667.0,1767084544.289
2118305.0,1767084544.328
2115366.0,1767084544.367
2114713.0,1767084544.406
2116572.0,1767084544.445
2128614.0,1767084544.016
2119430.0,1767084544.484
2120407.0,1767084544.523
2120093.0,1767084544.562
2120937.0,1767084544.601
2123467.0,1767084544.64
2127352.0,1767084544.679
2129512.0,1767084544.718
2131533.0,1767084544.757
2133557.0,1767084544.796
2135233.0,1767084544.835
2136399.0,1767084544.874
2137281.0,1767084544.913
2138593.0,1767084544.952
2139438.0,1767084544.991
2139805.0,1767084545.03
2137678.0,1767084545.069
2131781.0,1767084545.108
2120991.0,1767084545.186
2125558.0,1767084545.147
2118542.0,1767084545.225
2118463.0,1767084545.264
2119887.0,1767084545.303
2120208.0,1767084545.342
2121588.0,1767084545.381
2124221.0,1767084545.42
2122422.0,1767084545.459
2120549.0,1767084545.498
2119111.0,1767084545.537
2119402.0,1767084545.576
2120811.0,1767084545.615
2122609.0,1767084545.654
2126756.0,1767084545.693
2131352.0,1767084545.732
2135538.0,1767084545.771
2138770.0,1767084545.81
2141788.0,1767084545.849
2144272.0,1767084545.888
2147300.0,1767084545.927
2149825.0,1767084545.966
2152509.0,1767084546.005
2155285.0,1767084546.044
2158337.0,1767084546.083
2161257.0,1767084546.122
2163646.0,1767084546.161
2165707.0,1767084546.2
2167190.0,1767084546.239
2167190.0,1767084546.278
2168858.0,1767084546.317
2170305.0,1767084546.356
2171494.0,1767084546.395
2171705.0,1767084546.434
2171239.0,1767084546.473
2170337.0,1767084546.512
2169807.0,1767084546.551
2169849.0,1767084546.59
2169616.0,1767084546.629
2169845.0,1767084546.668
2169570.0,1767084546.707
2169827.0,1767084546.746
2170109.0,1767084546.785
2170423.0,1767084546.824
2170476.0,1767084546.863
2170561.0,1767084546.902
2170980.0,1767084546.941
2171598.0,1767084546.98
2172310.0,1767084547.019
2172461.0,1767084547.058
2172601.0,1767084547.097
2172958.0,1767084547.136
2173879.0,1767084547.175
2174675.0,1767084547.214
2174483.0,1767084547.253
2171830.0,1767084547.292
2169127.0,1767084547.331
2166746.0,1767084547.37
2165190.0,1767084547.409
2163629.0,1767084547.448
2163575.0,1767084547.487
2163551.0,1767084547.526
2161345.0,1767084547.565
2160048.0,1767084547.604
2159229.0,1767084547.643
2158657.0,1767084547.682
2157688.0,1767084547.721
2157194.0,1767084547.76
2156919.0,1767084547.799
2157548.0,1767084547.838
2159933.0,1767084547.877
2163362.0,1767084547.916
2165491.0,1767084547.955
2167669.0,1767084547.994
2169602.0,1767084548.033
2170340.0,1767084548.072
2170241.0,1767084548.111
2170885.0,1767084548.151
2171127.0,1767084548.191
2171084.0,1767084548.231
2170348.0,1767084548.271
2170070.0,1767084548.311
2169540.0,1767084548.351
2169187.0,1767084548.391
2168616.0,1767084548.431
2168858.0,1767084548.471
2169055.0,1767084548.511
2169310.0,1767084548.551
2169920.0,1767084548.591
2170710.0,1767084548.631
2171124.0,1767084548.671
2171993.0,1767084548.711
2172789.0,1767084548.751
2173744.0,1767084548.791
2173929.0,1767084548.831
2172888.0,1767084548.871
2171554.0,1767084548.911
2170121.0,1767084548.951
2169298.0,1767084548.991
2168410.0,1767084549.031
2167916.0,1767084549.071
2167724.0,1767084549.111
2167879.0,1767084549.151
2167723.0,1767084549.191
2167625.0,1767084549.231
2167822.0,1767084549.271
2168246.0,1767084549.311
2168914.0,1767084549.351
2169389.0,1767084549.391
2170183.0,1767084549.431
2170137.0,1767084549.471
2169147.0,1767084549.511
2167031.0,1767084549.551
2165138.0,1767084549.591
2163563.0,1767084549.631
2163329.0,1767084549.671
2163123.0,1767084549.711
2163113.0,1767084549.751
2162427.0,1767084549.791
2162073.0,1767084549.831
2162570.0,1767084549.871
2162930.0,1767084549.911
2163263.0,1767084549.951
2163757.0,1767084549.991
2164151.0,1767084550.031
2164946.0,1767084550.071
2165536.0,1767084550.111
2164724.0,1767084550.151
2163562.0,1767084550.191
2162399.0,1767084550.231
2161977.0,1767084550.271
2161658.0,1767084550.311
2161670.0,1767084550.351
2161991.0,1767084550.391
2162101.0,1767084550.431
2161827.0,1767084550.471
2162075.0,1767084550.511
2162326.0,1767084550.551
2162695.0,1767084550.591
2163447.0,1767084550.631
2164234.0,1767084550.671
2164833.0,1767084550.711
2165770.0,1767084550.751
2166557.0,1767084550.791
2166234.0,1767084550.831
2164113.0,1767084550.871
2161395.0,1767084550.911
2158706.0,1767084550.951
2156362.0,1767084550.991
2154431.0,1767084551.031
2153128.0,1767084551.071
2151859.0,1767084551.111
2150815.0,1767084551.151
2150815.0,1767084551.191
2149896.0,1767084551.231
2149561.0,1767084551.271
2149382.0,1767084551.311
2149210.0,1767084551.351
2149672.0,1767084551.391
2149549.0,1767084551.431
2147539.0,1767084551.471
2144415.0,1767084551.511
2140342.0,1767084551.551
2135525.0,1767084551.591
2128489.0,1767084551.631
2122614.0,1767084551.671
2116715.0,1767084551.711
2113741.0,1767084551.751
2112623.0,1767084551.791
2111226.0,1767084551.831
2111040.0,1767084551.871
2112049.0,1767084551.911
2111913.0,1767084551.951
2110970.0,1767084551.991
2110607.0,1767084552.031
