bvp,time
33.71,1644481473.640625
37.86,1644481473.65625
42.38,1644481473.671875
48.27,1644481473.6875
55.87,1644481473.703125
64.74,1644481473.71875
73.85,1644481473.734375
82.02,1644481473.75
88.4,1644481473.765625
92.66,1644481473.78125
94.93,1644481473.796875
95.57,1644481473.8125
95.0,1644481473.828125
93.56,1644481473.84375
91.47,1644481473.859375
88.77,1644481473.875
85.4,1644481473.890625
81.3,1644481473.90625
76.68,1644481473.921875
71.99,1644481473.9375
67.89,1644481473.953125
64.89,1644481473.96875
63.05,1644481473.984375
61.9,1644481474.0
60.64,1644481474.015625
58.59,1644481474.03125
55.63,1644481474.046875
52.18,1644481474.0625
48.98,1644481474.078125
46.54,1644481474.09375
44.82,1644481474.109375
43.19,1644481474.125
40.8,1644481474.140625
37.03,1644481474.15625
31.74,1644481474.171875
25.33,1644481474.1875
18.31,1644481474.203125
11.03,1644481474.21875
3.46,1644481474.234375
-4.57,1644481474.25
-12.96,1644481474.265625
-21.13,1644481474.28125
-28.17,1644481474.296875
-33.3,1644481474.3125
-36.36,1644481474.328125
-37.96,1644481474.34375
-39.18,1644481474.359375
-40.92,1644481474.375
-43.31,1644481474.390625
-45.59,1644481474.40625
-46.46,1644481474.421875
-44.65,1644481474.4375
-39.57,1644481474.453125
-31.49,1644481474.46875
-21.39,1644481474.484375
-10.65,1644481474.5
-0.82,1644481474.515625
6.75,1644481474.53125
11.29,1644481474.546875
12.77,1644481474.5625
11.82,1644481474.578125
9.49,1644481474.59375
6.78,1644481474.609375
4.3,1644481474.625
1.91,1644481474.640625
-1.56,1644481474.65625
-7.84,1644481474.671875
-18.26,1644481474.6875
-32.98,1644481474.703125
-50.34,1644481474.71875
-66.43,1644481474.734375
-75.63,1644481474.75
-72.14,1644481474.765625
-52.14,1644481474.78125
-16.58,1644481474.796875
28.8,1644481474.8125
75.73,1644481474.828125
116.35,1644481474.84375
145.78,1644481474.859375
163.21,1644481474.875
171.1,1644481474.890625
173.27,1644481474.90625
173.22,1644481474.921875
171.93,1644481474.9375
169.11,1644481474.953125
165.15,1644481474.96875
161.35,1644481474.984375
159.01,1644481475.0
158.16,1644481475.015625
156.95,1644481475.03125
152.37,1644481475.046875
141.59,1644481475.0625
121.02,1644481475.078125
87.71,1644481475.09375
40.92,1644481475.109375
-17.39,1644481475.125
-82.68,1644481475.140625
-147.91,1644481475.15625
-204.73,1644481475.171875
-248.72,1644481475.1875
-270.89,1644481475.203125
-268.21,1644481475.21875
-248.96,1644481475.234375
-227.13,1644481475.25
-213.05,1644481475.265625
-208.87,1644481475.28125
-210.26,1644481475.296875
-211.5,1644481475.3125
-209.27,1644481475.328125
-203.46,1644481475.34375
-197.47,1644481475.359375
-194.57,1644481475.375
-194.45,1644481475.390625
-193.67,1644481475.40625
-188.76,1644481475.421875
-176.75,1644481475.4375
-157.53,1644481475.453125
-133.49,1644481475.46875
-107.84,1644481475.484375
-84.4,1644481475.5
-65.65,1644481475.515625
-50.92,1644481475.53125
-37.57,1644481475.546875
-22.61,1644481475.5625
-3.74,1644481475.578125
19.88,1644481475.59375
47.89,1644481475.609375
79.24,1644481475.625
111.94,1644481475.640625
140.22,1644481475.65625
159.91,1644481475.671875
168.42,1644481475.6875
165.03,1644481475.703125
151.28,1644481475.71875
130.31,1644481475.734375
106.08,1644481475.75
82.17,1644481475.765625
60.52,1644481475.78125
41.52,1644481475.796875
25.29,1644481475.8125
11.82,1644481475.828125
1.15,1644481475.84375
-6.68,1644481475.859375
-12.12,1644481475.875
-16.12,1644481475.890625
-19.83,1644481475.90625
-24.36,1644481475.921875
-30.32,1644481475.9375
-37.12,1644481475.953125
-43.74,1644481475.96875
-49.15,1644481475.984375
-52.76,1644481476.0
-54.84,1644481476.015625
-56.22,1644481476.03125
-58.0,1644481476.046875
-60.94,1644481476.0625
-65.24,1644481476.078125
-70.15,1644481476.09375
-74.51,1644481476.109375
-77.24,1644481476.125
-77.59,1644481476.140625
-75.42,1644481476.15625
-71.1,1644481476.171875
-65.32,1644481476.1875
-58.88,1644481476.203125
-52.54,1644481476.21875
-46.75,1644481476.234375
-41.7,1644481476.25
-37.38,1644481476.265625
-33.56,1644481476.28125
-29.94,1644481476.296875
-26.2,1644481476.3125
-22.12,1644481476.328125
-17.68,1644481476.34375
-13.03,1644481476.359375
-8.46,1644481476.375
-4.29,1644481476.390625
-0.72,1644481476.40625
2.32,1644481476.421875
4.99,1644481476.4375
7.5,1644481476.453125
9.88,1644481476.46875
11.84,1644481476.484375
13.07,1644481476.5
13.43,1644481476.515625
13.18,1644481476.53125
13.05,1644481476.546875
14.0,1644481476.5625
16.71,1644481476.578125
21.31,1644481476.59375
27.31,1644481476.609375
33.64,1644481476.625
39.18,1644481476.640625
43.03,1644481476.65625
44.83,1644481476.671875
44.67,1644481476.6875
43.08,1644481476.703125
40.67,1644481476.71875
37.96,1644481476.734375
35.38,1644481476.75
33.12,1644481476.765625
31.27,1644481476.78125
29.85,1644481476.796875
28.82,1644481476.8125
28.08,1644481476.828125
27.41,1644481476.84375
26.43,1644481476.859375
24.68,1644481476.875
21.7,1644481476.890625
17.12,1644481476.90625
10.8,1644481476.921875
2.82,1644481476.9375
-6.56,1644481476.953125
-16.96,1644481476.96875
-27.9,1644481476.984375
-38.79,1644481477.0
-48.91,1644481477.015625
-57.33,1644481477.03125
-63.18,1644481477.046875
-65.65,1644481477.0625
-64.46,1644481477.078125
-59.95,1644481477.09375
-53.04,1644481477.109375
-44.95,1644481477.125
-36.87,1644481477.140625
-29.62,1644481477.15625
-23.56,1644481477.171875
-18.59,1644481477.1875
-14.33,1644481477.203125
-10.25,1644481477.21875
-5.82,1644481477.234375
-0.62,1644481477.25
5.55,1644481477.265625
12.52,1644481477.28125
19.78,1644481477.296875
26.58,1644481477.3125
32.19,1644481477.328125
36.1,1644481477.34375
38.2,1644481477.359375
38.74,1644481477.375
38.23,1644481477.390625
37.23,1644481477.40625
36.12,1644481477.421875
35.06,1644481477.4375
34.01,1644481477.453125
32.82,1644481477.46875
31.28,1644481477.484375
29.27,1644481477.5
26.75,1644481477.515625
23.77,1644481477.53125
20.47,1644481477.546875
17.01,1644481477.5625
13.52,1644481477.578125
10.06,1644481477.59375
6.66,1644481477.609375
3.32,1644481477.625
0.07,1644481477.640625
-3.0,1644481477.65625
-5.82,1644481477.671875
-8.46,1644481477.6875
-11.09,1644481477.703125
-13.91,1644481477.71875
-16.98,1644481477.734375
-20.16,1644481477.75
-23.12,1644481477.765625
-25.51,1644481477.78125
-27.15,1644481477.796875
-28.17,1644481477.8125
-28.95,1644481477.828125
-29.91,1644481477.84375
-31.26,1644481477.859375
-32.8,1644481477.875
-33.97,1644481477.890625
-34.13,1644481477.90625
-32.8,1644481477.921875
-29.83,1644481477.9375
-25.47,1644481477.953125
-20.12,1644481477.96875
-14.3,1644481477.984375
-8.43,1644481478.0
-2.79,1644481478.015625
2.32,1644481478.03125
6.7,1644481478.046875
10.12,1644481478.0625
12.53,1644481478.078125
14.02,1644481478.09375
14.87,1644481478.109375
15.35,1644481478.125
15.66,1644481478.140625
15.78,1644481478.15625
15.59,1644481478.171875
14.94,1644481478.1875
13.84,1644481478.203125
12.43,1644481478.21875
10.93,1644481478.234375
9.59,1644481478.25
8.51,1644481478.265625
7.76,1644481478.28125
7.39,1644481478.296875
7.48,1644481478.3125
8.07,1644481478.328125
9.02,1644481478.34375
9.96,1644481478.359375
10.39,1644481478.375
9.89,1644481478.390625
8.45,1644481478.40625
6.42,1644481478.421875
4.45,1644481478.4375
3.08,1644481478.453125
2.44,1644481478.46875
2.18,1644481478.484375
1.69,1644481478.5
0.49,1644481478.515625
-1.54,1644481478.53125
-4.05,1644481478.546875
-6.55,1644481478.5625
-8.67,1644481478.578125
-10.41,1644481478.59375
-12.11,1644481478.609375
-14.21,1644481478.625
-16.98,1644481478.640625
-20.21,1644481478.65625
-23.3,1644481478.671875
-25.44,1644481478.6875
-25.95,1644481478.703125
-24.58,1644481478.71875
-21.55,1644481478.734375
-17.48,1644481478.75
-13.09,1644481478.765625
-8.91,1644481478.78125
-5.19,1644481478.796875
-1.86,1644481478.8125
1.21,1644481478.828125
4.06,1644481478.84375
6.54,1644481478.859375
8.39,1644481478.875
9.35,1644481478.890625
9.38,1644481478.90625
8.65,1644481478.921875
7.51,1644481478.9375
6.32,1644481478.953125
5.38,1644481478.96875
4.79,1644481478.984375
4.57,1644481479.0
4.65,1644481479.015625
4.95,1644481479.03125
5.42,1644481479.046875
6.04,1644481479.0625
6.84,1644481479.078125
7.82,1644481479.09375
8.92,1644481479.109375
10.05,1644481479.125
11.02,1644481479.140625
11.66,1644481479.15625
11.85,1644481479.171875
11.53,1644481479.1875
10.73,1644481479.203125
9.49,1644481479.21875
7.85,1644481479.234375
5.83,1644481479.25
3.48,1644481479.265625
0.88,1644481479.28125
-1.85,1644481479.296875
-4.56,1644481479.3125
-7.16,1644481479.328125
-9.63,1644481479.34375
-12.02,1644481479.359375
-14.45,1644481479.375
-16.98,1644481479.390625
-19.54,1644481479.40625
-21.89,1644481479.421875
-23.68,1644481479.4375
-24.52,1644481479.453125
-24.13,1644481479.46875
-22.44,1644481479.484375
-19.56,1644481479.5
-15.72,1644481479.515625
-11.23,1644481479.53125
-6.4,1644481479.546875
-1.6,1644481479.5625
2.86,1644481479.578125
6.66,1644481479.59375
9.62,1644481479.609375
11.8,1644481479.625
13.37,1644481479.640625
14.58,1644481479.65625
15.63,1644481479.671875
16.55,1644481479.6875
17.32,1644481479.703125
17.86,1644481479.71875
18.17,1644481479.734375
18.28,1644481479.75
18.24,1644481479.765625
18.1,1644481479.78125
17.86,1644481479.796875
17.6,1644481479.8125
17.45,1644481479.828125
17.55,1644481479.84375
17.96,1644481479.859375
18.58,1644481479.875
19.22,1644481479.890625
19.66,1644481479.90625
19.75,1644481479.921875
19.48,1644481479.9375
18.92,1644481479.953125
18.1,1644481479.96875
16.96,1644481479.984375
15.45,1644481480.0
13.57,1644481480.015625
11.46,1644481480.03125
9.33,1644481480.046875
7.31,1644481480.0625
5.39,1644481480.078125
3.42,1644481480.09375
1.17,1644481480.109375
-1.45,1644481480.125
-4.37,1644481480.140625
-7.39,1644481480.15625
-10.33,1644481480.171875
-13.06,1644481480.1875
-15.57,1644481480.203125
-17.91,1644481480.21875
-20.07,1644481480.234375
-22.11,1644481480.25
-24.13,1644481480.265625
-26.29,1644481480.28125
-28.76,1644481480.296875
-31.48,1644481480.3125
-34.13,1644481480.328125
-36.1,1644481480.34375
-36.69,1644481480.359375
-35.46,1644481480.375
-32.38,1644481480.390625
-27.89,1644481480.40625
-22.64,1644481480.421875
-17.3,1644481480.4375
-12.25,1644481480.453125
-7.6,1644481480.46875
-3.35,1644481480.484375
0.53,1644481480.5
3.94,1644481480.515625
6.77,1644481480.53125
8.96,1644481480.546875
10.64,1644481480.5625
12.04,1644481480.578125
13.45,1644481480.59375
15.0,1644481480.609375
16.67,1644481480.625
18.31,1644481480.640625
19.73,1644481480.65625
20.8,1644481480.671875
21.49,1644481480.6875
21.85,1644481480.703125
21.97,1644481480.71875
21.97,1644481480.734375
21.95,1644481480.75
21.93,1644481480.765625
21.94,1644481480.78125
21.88,1644481480.796875
21.71,1644481480.8125
21.3,1644481480.828125
20.63,1644481480.84375
19.7,1644481480.859375
18.64,1644481480.875
17.6,1644481480.890625
16.71,1644481480.90625
16.04,1644481480.921875
15.53,1644481480.9375
15.0,1644481480.953125
14.27,1644481480.96875
13.22,1644481480.984375
11.84,1644481481.0
10.29,1644481481.015625
8.69,1644481481.03125
7.08,1644481481.046875
5.31,1644481481.0625
3.1,1644481481.078125
0.23,1644481481.09375
-3.26,1644481481.109375
-6.98,1644481481.125
-10.35,1644481481.140625
-12.84,1644481481.15625
-14.27,1644481481.171875
-14.93,1644481481.1875
-15.45,1644481481.203125
-16.38,1644481481.21875
-18.06,1644481481.234375
-20.38,1644481481.25
-23.02,1644481481.265625
-25.69,1644481481.28125
-28.22,1644481481.296875
-30.46,1644481481.3125
-32.15,1644481481.328125
-32.72,1644481481.34375
-31.52,1644481481.359375
-28.09,1644481481.375
-22.6,1644481481.390625
-15.9,1644481481.40625
-9.25,1644481481.421875
-3.73,1644481481.4375
0.2,1644481481.453125
2.8,1644481481.46875
4.75,1644481481.484375
6.72,1644481481.5
9.03,1644481481.515625
11.57,1644481481.53125
13.99,1644481481.546875
16.03,1644481481.5625
17.65,1644481481.578125
18.96,1644481481.59375
20.14,1644481481.609375
21.21,1644481481.625
22.09,1644481481.640625
22.64,1644481481.65625
22.84,1644481481.671875
22.8,1644481481.6875
22.68,1644481481.703125
22.68,1644481481.71875
22.88,1644481481.734375
23.27,1644481481.75
23.77,1644481481.765625
24.23,1644481481.78125
24.49,1644481481.796875
24.37,1644481481.8125
23.73,1644481481.828125
22.54,1644481481.84375
20.94,1644481481.859375
19.15,1644481481.875
17.4,1644481481.890625
15.82,1644481481.90625
14.44,1644481481.921875
13.14,1644481481.9375
11.8,1644481481.953125
10.37,1644481481.96875
8.88,1644481481.984375
7.49,1644481482.0
6.37,1644481482.015625
5.66,1644481482.03125
5.37,1644481482.046875
5.39,1644481482.0625
5.52,1644481482.078125
5.54,1644481482.09375
5.29,1644481482.109375
4.73,1644481482.125
3.96,1644481482.140625
3.16,1644481482.15625
2.46,1644481482.171875
1.94,1644481482.1875
1.51,1644481482.203125
1.05,1644481482.21875
0.47,1644481482.234375
-0.29,1644481482.25
-1.33,1644481482.265625
-2.68,1644481482.28125
-4.43,1644481482.296875
-6.53,1644481482.3125
-8.8,1644481482.328125
-10.94,1644481482.34375
-12.62,1644481482.359375
-13.64,1644481482.375
-14.01,1644481482.390625
-13.88,1644481482.40625
-13.36,1644481482.421875
-12.48,1644481482.4375
-11.15,1644481482.453125
-9.4,1644481482.46875
-7.4,1644481482.484375
-5.53,1644481482.5
-4.13,1644481482.515625
-3.33,1644481482.53125
-3.02,1644481482.546875
-2.92,1644481482.5625
-2.8,1644481482.578125
-2.58,1644481482.59375
-2.24,1644481482.609375
-1.76,1644481482.625
-0.93,1644481482.640625
0.57,1644481482.65625
2.91,1644481482.671875
5.9,1644481482.6875
8.96,1644481482.703125
11.38,1644481482.71875
12.64,1644481482.734375
12.71,1644481482.75
12.02,1644481482.765625
11.22,1644481482.78125
10.82,1644481482.796875
10.97,1644481482.8125
11.48,1644481482.828125
11.99,1644481482.84375
12.2,1644481482.859375
12.07,1644481482.875
11.75,1644481482.890625
11.49,1644481482.90625
11.37,1644481482.921875
11.35,1644481482.9375
11.23,1644481482.953125
10.81,1644481482.96875
10.03,1644481482.984375
8.98,1644481483.0
7.81,1644481483.015625
6.67,1644481483.03125
5.6,1644481483.046875
4.48,1644481483.0625
3.19,1644481483.078125
1.62,1644481483.09375
-0.22,1644481483.109375
-2.2,1644481483.125
-4.12,1644481483.140625
-5.85,1644481483.15625
-7.37,1644481483.171875
-8.72,1644481483.1875
-10.02,1644481483.203125
-11.34,1644481483.21875
-12.74,1644481483.234375
-14.18,1644481483.25
-15.59,1644481483.265625
-16.9,1644481483.28125
-18.07,1644481483.296875
-19.05,1644481483.3125
-19.75,1644481483.328125
-20.05,1644481483.34375
-19.77,1644481483.359375
-18.78,1644481483.375
-17.07,1644481483.390625
-14.83,1644481483.40625
-12.39,1644481483.421875
-10.14,1644481483.4375
-8.34,1644481483.453125
-7.04,1644481483.46875
-6.1,1644481483.484375
-5.3,1644481483.5
-4.41,1644481483.515625
-3.37,1644481483.53125
-2.24,1644481483.546875
-1.09,1644481483.5625
-0.06,1644481483.578125
0.85,1644481483.59375
1.65,1644481483.609375
2.34,1644481483.625
2.9,1644481483.640625
3.31,1644481483.65625
3.49,1644481483.671875
3.44,1644481483.6875
3.22,1644481483.703125
2.9,1644481483.71875
2.59,1644481483.734375
2.33,1644481483.75
2.14,1644481483.765625
2.04,1644481483.78125
2.04,1644481483.796875
2.16,1644481483.8125
2.31,1644481483.828125
2.39,1644481483.84375
2.24,1644481483.859375
1.76,1644481483.875
0.93,1644481483.890625
-0.13,1644481483.90625
-1.25,1644481483.921875
-2.3,1644481483.9375
-3.2,1644481483.953125
-3.98,1644481483.96875
-4.67,1644481483.984375
-5.33,1644481484.0
-5.93,1644481484.015625
-6.47,1644481484.03125
-6.94,1644481484.046875
-7.37,1644481484.0625
-7.83,1644481484.078125
-8.38,1644481484.09375
-9.06,1644481484.109375
-9.88,1644481484.125
-10.8,1644481484.140625
-11.77,1644481484.15625
-12.66,1644481484.171875
-13.36,1644481484.1875
-13.76,1644481484.203125
-13.82,1644481484.21875
-13.59,1644481484.234375
-13.12,1644481484.25
-12.48,1644481484.265625
-11.69,1644481484.28125
-10.74,1644481484.296875
-9.61,1644481484.3125
-8.3,1644481484.328125
-6.88,1644481484.34375
-5.49,1644481484.359375
-4.2,1644481484.375
-3.1,1644481484.390625
-2.17,1644481484.40625
-1.38,1644481484.421875
-0.69,1644481484.4375
-0.07,1644481484.453125
0.48,1644481484.46875
0.89,1644481484.484375
1.06,1644481484.5
0.93,1644481484.515625
0.5,1644481484.53125
-0.13,1644481484.546875
-0.76,1644481484.5625
-1.17,1644481484.578125
-1.24,1644481484.59375
-0.99,1644481484.609375
-0.67,1644481484.625
-0.52,1644481484.640625
-0.75,1644481484.65625
-1.38,1644481484.671875
-2.24,1644481484.6875
-3.05,1644481484.703125
-3.59,1644481484.71875
-3.74,1644481484.734375
-3.54,1644481484.75
-3.09,1644481484.765625
-2.47,1644481484.78125
-1.75,1644481484.796875
-1.0,1644481484.8125
-0.37,1644481484.828125
0.03,1644481484.84375
0.01,1644481484.859375
-0.46,1644481484.875
-1.37,1644481484.890625
-2.57,1644481484.90625
-3.91,1644481484.921875
-5.28,1644481484.9375
-6.64,1644481484.953125
-7.96,1644481484.96875
-9.25,1644481484.984375
-10.48,1644481485.0
-11.64,1644481485.015625
-12.72,1644481485.03125
-13.72,1644481485.046875
-14.59,1644481485.0625
-15.23,1644481485.078125
-15.49,1644481485.09375
-15.19,1644481485.109375
-14.24,1644481485.125
-12.68,1644481485.140625
-10.63,1644481485.15625
-8.31,1644481485.171875
-5.95,1644481485.1875
-3.72,1644481485.203125
-1.72,1644481485.21875
-0.01,1644481485.234375
1.38,1644481485.25
2.42,1644481485.265625
3.11,1644481485.28125
3.46,1644481485.296875
3.47,1644481485.3125
3.2,1644481485.328125
2.77,1644481485.34375
2.29,1644481485.359375
1.93,1644481485.375
1.83,1644481485.390625
2.09,1644481485.40625
2.75,1644481485.421875
3.75,1644481485.4375
4.97,1644481485.453125
6.2,1644481485.46875
7.3,1644481485.484375
8.15,1644481485.5
8.68,1644481485.515625
8.89,1644481485.53125
8.8,1644481485.546875
8.43,1644481485.5625
7.85,1644481485.578125
7.12,1644481485.59375
6.32,1644481485.609375
5.52,1644481485.625
4.83,1644481485.640625
4.24,1644481485.65625
3.74,1644481485.671875
3.28,1644481485.6875
2.8,1644481485.703125
2.26,1644481485.71875
1.65,1644481485.734375
0.98,1644481485.75
0.26,1644481485.765625
-0.5,1644481485.78125
-1.36,1644481485.796875
-2.32,1644481485.8125
-3.41,1644481485.828125
-4.58,1644481485.84375
-5.77,1644481485.859375
-6.89,1644481485.875
-7.9,1644481485.890625
-8.81,1644481485.90625
-9.71,1644481485.921875
-10.69,1644481485.9375
-11.79,1644481485.953125
-12.95,1644481485.96875
-14.05,1644481485.984375
-14.85,1644481486.0
-15.22,1644481486.015625
-15.01,1644481486.03125
-14.23,1644481486.046875
-12.92,1644481486.0625
-11.18,1644481486.078125
-9.13,1644481486.09375
-6.93,1644481486.109375
-4.8,1644481486.125
-2.92,1644481486.140625
-1.47,1644481486.15625
-0.49,1644481486.171875
0.09,1644481486.1875
0.42,1644481486.203125
0.72,1644481486.21875
1.14,1644481486.234375
1.75,1644481486.25
2.51,1644481486.265625
3.34,1644481486.28125
4.17,1644481486.296875
4.98,1644481486.3125
5.72,1644481486.328125
6.33,1644481486.34375
6.72,1644481486.359375
6.78,1644481486.375
6.48,1644481486.390625
5.89,1644481486.40625
5.16,1644481486.421875
4.52,1644481486.4375
4.11,1644481486.453125
4.01,1644481486.46875
4.19,1644481486.484375
4.52,1644481486.5
4.84,1644481486.515625
5.03,1644481486.53125
5.0,1644481486.546875
4.72,1644481486.5625
4.25,1644481486.578125
3.66,1644481486.59375
3.04,1644481486.609375
2.45,1644481486.625
1.9,1644481486.640625
1.38,1644481486.65625
0.91,1644481486.671875
0.54,1644481486.6875
0.27,1644481486.703125
0.05,1644481486.71875
-0.19,1644481486.734375
-0.57,1644481486.75
-1.15,1644481486.765625
-1.89,1644481486.78125
-2.69,1644481486.796875
-3.44,1644481486.8125
-4.12,1644481486.828125
-4.8,1644481486.84375
-5.61,1644481486.859375
-6.64,1644481486.875
-7.84,1644481486.890625
-9.07,1644481486.90625
-10.24,1644481486.921875
-11.28,1644481486.9375
-12.21,1644481486.953125
-13.07,1644481486.96875
-13.82,1644481486.984375
-14.31,1644481487.0
-14.34,1644481487.015625
-13.7,1644481487.03125
-12.34,1644481487.046875
-10.41,1644481487.0625
-8.17,1644481487.078125
-5.93,1644481487.09375
-3.89,1644481487.109375
-2.14,1644481487.125
-0.65,1644481487.140625
0.65,1644481487.15625
1.83,1644481487.171875
2.89,1644481487.1875
3.77,1644481487.203125
4.46,1644481487.21875
4.97,1644481487.234375
5.46,1644481487.25
6.07,1644481487.265625
6.96,1644481487.28125
8.18,1644481487.296875
9.66,1644481487.3125
11.24,1644481487.328125
12.77,1644481487.34375
14.16,1644481487.359375
15.33,1644481487.375
16.3,1644481487.390625
17.13,1644481487.40625
17.86,1644481487.421875
18.51,1644481487.4375
19.06,1644481487.453125
19.42,1644481487.46875
19.54,1644481487.484375
19.44,1644481487.5
19.19,1644481487.515625
19.05,1644481487.53125
19.33,1644481487.546875
20.3,1644481487.5625
22.05,1644481487.578125
24.36,1644481487.59375
26.74,1644481487.609375
28.52,1644481487.625
29.07,1644481487.640625
27.89,1644481487.65625
24.8,1644481487.671875
19.84,1644481487.6875
13.34,1644481487.703125
5.86,1644481487.71875
-1.88,1644481487.734375
-9.11,1644481487.75
-15.2,1644481487.765625
-19.81,1644481487.78125
-23.01,1644481487.796875
-25.2,1644481487.8125
-26.95,1644481487.828125
-28.64,1644481487.84375
-30.39,1644481487.859375
-31.96,1644481487.875
-32.99,1644481487.890625
-33.15,1644481487.90625
-32.33,1644481487.921875
-30.66,1644481487.9375
-28.41,1644481487.953125
-25.85,1644481487.96875
-23.16,1644481487.984375
-20.47,1644481488.0
-17.86,1644481488.015625
-15.44,1644481488.03125
-13.35,1644481488.046875
-11.71,1644481488.0625
-10.56,1644481488.078125
-9.78,1644481488.09375
-9.16,1644481488.109375
-8.43,1644481488.125
-7.45,1644481488.140625
-6.23,1644481488.15625
-4.89,1644481488.171875
-3.62,1644481488.1875
-2.53,1644481488.203125
-1.57,1644481488.21875
-0.63,1644481488.234375
0.39,1644481488.25
1.5,1644481488.265625
2.57,1644481488.28125
3.4,1644481488.296875
3.9,1644481488.3125
4.01,1644481488.328125
3.8,1644481488.34375
3.35,1644481488.359375
2.74,1644481488.375
2.01,1644481488.390625
1.2,1644481488.40625
0.38,1644481488.421875
-0.41,1644481488.4375
-1.16,1644481488.453125
-1.92,1644481488.46875
-2.78,1644481488.484375
-3.82,1644481488.5
-5.01,1644481488.515625
-6.25,1644481488.53125
-7.41,1644481488.546875
-8.4,1644481488.5625
-9.23,1644481488.578125
-10.0,1644481488.59375
-10.85,1644481488.609375
-11.89,1644481488.625
-13.14,1644481488.640625
-14.57,1644481488.65625
-16.04,1644481488.671875
-17.39,1644481488.6875
-18.42,1644481488.703125
-18.99,1644481488.71875
-19.03,1644481488.734375
-18.56,1644481488.75
-17.62,1644481488.765625
-16.27,1644481488.78125
-14.55,1644481488.796875
-12.45,1644481488.8125
-10.04,1644481488.828125
-7.42,1644481488.84375
-4.8,1644481488.859375
-2.41,1644481488.875
-0.43,1644481488.890625
1.1,1644481488.90625
2.32,1644481488.921875
3.37,1644481488.9375
4.42,1644481488.953125
5.48,1644481488.96875
6.47,1644481488.984375
7.23,1644481489.0
7.7,1644481489.015625
7.93,1644481489.03125
8.13,1644481489.046875
8.51,1644481489.0625
9.15,1644481489.078125
9.98,1644481489.09375
10.77,1644481489.109375
11.29,1644481489.125
11.46,1644481489.140625
11.37,1644481489.15625
11.2,1644481489.171875
11.09,1644481489.1875
11.06,1644481489.203125
11.0,1644481489.21875
10.75,1644481489.234375
10.22,1644481489.25
9.42,1644481489.265625
8.46,1644481489.28125
7.5,1644481489.296875
6.62,1644481489.3125
5.81,1644481489.328125
4.98,1644481489.34375
4.01,1644481489.359375
2.77,1644481489.375
1.22,1644481489.390625
-0.59,1644481489.40625
-2.52,1644481489.421875
-4.39,1644481489.4375
-6.06,1644481489.453125
-7.45,1644481489.46875
-8.6,1644481489.484375
-9.66,1644481489.5
-10.75,1644481489.515625
-11.95,1644481489.53125
-13.35,1644481489.546875
-14.98,1644481489.5625
-16.9,1644481489.578125
-19.04,1644481489.59375
-21.25,1644481489.609375
-23.19,1644481489.625
-24.44,1644481489.640625
-24.58,1644481489.65625
-23.43,1644481489.671875
-21.08,1644481489.6875
-17.88,1644481489.703125
-14.33,1644481489.71875
-10.85,1644481489.734375
-7.71,1644481489.75
-4.96,1644481489.765625
-2.49,1644481489.78125
-0.15,1644481489.796875
2.1,1644481489.8125
4.23,1644481489.828125
6.14,1644481489.84375
7.7,1644481489.859375
8.89,1644481489.875
9.71,1644481489.890625
10.25,1644481489.90625
10.59,1644481489.921875
10.81,1644481489.9375
10.98,1644481489.953125
11.15,1644481489.96875
11.45,1644481489.984375
11.97,1644481490.0
12.77,1644481490.015625
13.8,1644481490.03125
14.9,1644481490.046875
15.92,1644481490.0625
16.73,1644481490.078125
17.26,1644481490.09375
17.48,1644481490.109375
17.37,1644481490.125
16.9,1644481490.140625
16.04,1644481490.15625
14.85,1644481490.171875
13.46,1644481490.1875
12.12,1644481490.203125
10.99,1644481490.21875
10.15,1644481490.234375
9.54,1644481490.25
9.01,1644481490.265625
8.39,1644481490.28125
7.59,1644481490.296875
6.65,1644481490.3125
5.6,1644481490.328125
4.54,1644481490.34375
3.54,1644481490.359375
2.63,1644481490.375
1.83,1644481490.390625
1.11,1644481490.40625
0.37,1644481490.421875
-0.52,1644481490.4375
-1.66,1644481490.453125
-3.11,1644481490.46875
-4.83,1644481490.484375
-6.69,1644481490.5
-8.55,1644481490.515625
-10.29,1644481490.53125
-11.89,1644481490.546875
-13.43,1644481490.5625
-15.01,1644481490.578125
-16.74,1644481490.59375
-18.65,1644481490.609375
-20.68,1644481490.625
-22.65,1644481490.640625
-24.29,1644481490.65625
-25.23,1644481490.671875
-25.18,1644481490.6875
-23.96,1644481490.703125
-21.6,1644481490.71875
-18.36,1644481490.734375
-14.64,1644481490.75
-10.87,1644481490.765625
-7.36,1644481490.78125
-4.31,1644481490.796875
-1.69,1644481490.8125
0.57,1644481490.828125
2.6,1644481490.84375
4.52,1644481490.859375
6.36,1644481490.875
8.14,1644481490.890625
9.85,1644481490.90625
11.45,1644481490.921875
12.9,1644481490.9375
14.17,1644481490.953125
15.17,1644481490.96875
15.85,1644481490.984375
16.18,1644481491.0
16.22,1644481491.015625
16.09,1644481491.03125
15.98,1644481491.046875
16.06,1644481491.0625
16.37,1644481491.078125
16.85,1644481491.09375
17.31,1644481491.109375
17.56,1644481491.125
17.47,1644481491.140625
17.07,1644481491.15625
16.44,1644481491.171875
15.69,1644481491.1875
14.9,1644481491.203125
14.11,1644481491.21875
13.38,1644481491.234375
12.78,1644481491.25
12.45,1644481491.265625
12.43,1644481491.28125
12.69,1644481491.296875
13.08,1644481491.3125
13.37,1644481491.328125
13.34,1644481491.34375
12.87,1644481491.359375
12.01,1644481491.375
10.86,1644481491.390625
9.59,1644481491.40625
8.3,1644481491.421875
7.03,1644481491.4375
5.73,1644481491.453125
4.33,1644481491.46875
2.77,1644481491.484375
1.06,1644481491.5
-0.69,1644481491.515625
-2.39,1644481491.53125
-3.96,1644481491.546875
-5.36,1644481491.5625
-6.59,1644481491.578125
-7.74,1644481491.59375
-8.86,1644481491.609375
-10.07,1644481491.625
-11.45,1644481491.640625
-13.03,1644481491.65625
-14.8,1644481491.671875
-16.65,1644481491.6875
-18.38,1644481491.703125
-19.73,1644481491.71875
-20.36,1644481491.734375
-20.04,1644481491.75
-18.64,1644481491.765625
-16.27,1644481491.78125
-13.19,1644481491.796875
-9.81,1644481491.8125
-6.57,1644481491.828125
-3.8,1644481491.84375
-1.7,1644481491.859375
-0.22,1644481491.875
0.85,1644481491.890625
1.77,1644481491.90625
2.77,1644481491.921875
3.97,1644481491.9375
5.33,1644481491.953125
6.71,1644481491.96875
7.96,1644481491.984375
8.9,1644481492.0
9.47,1644481492.015625
9.73,1644481492.03125
9.79,1644481492.046875
9.78,1644481492.0625
9.82,1644481492.078125
10.04,1644481492.09375
10.47,1644481492.109375
11.18,1644481492.125
12.17,1644481492.140625
13.35,1644481492.15625
14.62,1644481492.171875
15.76,1644481492.1875
16.57,1644481492.203125
16.9,1644481492.21875
16.75,1644481492.234375
16.17,1644481492.25
15.3,1644481492.265625
14.32,1644481492.28125
13.3,1644481492.296875
12.27,1644481492.3125
11.22,1644481492.328125
10.1,1644481492.34375
8.86,1644481492.359375
7.44,1644481492.375
5.9,1644481492.390625
4.31,1644481492.40625
2.8,1644481492.421875
1.42,1644481492.4375
0.13,1644481492.453125
-1.23,1644481492.46875
-2.76,1644481492.484375
-4.54,1644481492.5
-6.5,1644481492.515625
-8.49,1644481492.53125
-10.39,1644481492.546875
-12.17,1644481492.5625
-13.97,1644481492.578125
-15.94,1644481492.59375
-18.21,1644481492.609375
-20.69,1644481492.625
-23.11,1644481492.640625
-25.1,1644481492.65625
-26.27,1644481492.671875
-26.33,1644481492.6875
-25.19,1644481492.703125
-22.96,1644481492.71875
-19.88,1644481492.734375
-16.29,1644481492.75
-12.57,1644481492.765625
-9.02,1644481492.78125
-5.86,1644481492.796875
-3.16,1644481492.8125
-0.89,1644481492.828125
1.06,1644481492.84375
2.84,1644481492.859375
4.54,1644481492.875
6.23,1644481492.890625
7.92,1644481492.90625
9.62,1644481492.921875
11.28,1644481492.9375
12.82,1644481492.953125
14.13,1644481492.96875
15.1,1644481492.984375
15.7,1644481493.0
15.96,1644481493.015625
15.99,1644481493.03125
15.99,1644481493.046875
16.09,1644481493.0625
16.41,1644481493.078125
16.93,1644481493.09375
17.56,1644481493.109375
18.17,1644481493.125
18.61,1644481493.140625
18.74,1644481493.15625
18.5,1644481493.171875
17.88,1644481493.1875
17.0,1644481493.203125
16.01,1644481493.21875
15.07,1644481493.234375
14.27,1644481493.25
13.59,1644481493.265625
12.92,1644481493.28125
12.14,1644481493.296875
11.2,1644481493.3125
10.13,1644481493.328125
9.03,1644481493.34375
7.97,1644481493.359375
6.92,1644481493.375
5.75,1644481493.390625
4.3,1644481493.40625
2.47,1644481493.421875
0.31,1644481493.4375
-2.07,1644481493.453125
-4.49,1644481493.46875
-6.84,1644481493.484375
-9.04,1644481493.5
-11.08,1644481493.515625
-12.94,1644481493.53125
-14.61,1644481493.546875
-16.13,1644481493.5625
-17.56,1644481493.578125
-19.1,1644481493.59375
-20.91,1644481493.609375
-23.09,1644481493.625
-25.52,1644481493.640625
-27.8,1644481493.65625
-29.39,1644481493.671875
-29.73,1644481493.6875
-28.49,1644481493.703125
-25.62,1644481493.71875
-21.43,1644481493.734375
-16.46,1644481493.75
-11.32,1644481493.765625
-6.52,1644481493.78125
-2.39,1644481493.796875
0.95,1644481493.8125
3.58,1644481493.828125
5.67,1644481493.84375
7.37,1644481493.859375
8.8,1644481493.875
10.05,1644481493.890625
11.13,1644481493.90625
12.1,1644481493.921875
13.06,1644481493.9375
14.06,1644481493.953125
15.15,1644481493.96875
16.27,1644481493.984375
17.32,1644481494.0
18.27,1644481494.015625
19.12,1644481494.03125
19.92,1644481494.046875
20.66,1644481494.0625
21.24,1644481494.078125
21.44,1644481494.09375
21.1,1644481494.109375
20.16,1644481494.125
18.8,1644481494.140625
17.3,1644481494.15625
15.9,1644481494.171875
14.69,1644481494.1875
13.62,1644481494.203125
12.54,1644481494.21875
11.4,1644481494.234375
10.25,1644481494.25
9.24,1644481494.265625
8.49,1644481494.28125
7.98,1644481494.296875
7.61,1644481494.3125
7.15,1644481494.328125
6.49,1644481494.34375
5.61,1644481494.359375
4.67,1644481494.375
3.86,1644481494.390625
3.34,1644481494.40625
3.1,1644481494.421875
2.92,1644481494.4375
2.51,1644481494.453125
1.61,1644481494.46875
0.09,1644481494.484375
-1.95,1644481494.5
-4.24,1644481494.515625
-6.53,1644481494.53125
-8.63,1644481494.546875
-10.56,1644481494.5625
-12.44,1644481494.578125
-14.46,1644481494.59375
-16.71,1644481494.609375
-19.25,1644481494.625
-22.05,1644481494.640625
-25.01,1644481494.65625
-27.92,1644481494.671875
-30.48,1644481494.6875
-32.26,1644481494.703125
-32.79,1644481494.71875
-31.79,1644481494.734375
-29.23,1644481494.75
-25.43,1644481494.765625
-20.97,1644481494.78125
-16.47,1644481494.796875
-12.42,1644481494.8125
-9.1,1644481494.828125
-6.45,1644481494.84375
-4.3,1644481494.859375
-2.39,1644481494.875
-0.53,1644481494.890625
1.36,1644481494.90625
3.35,1644481494.921875
5.39,1644481494.9375
7.42,1644481494.953125
9.4,1644481494.96875
11.26,1644481494.984375
12.92,1644481495.0
14.33,1644481495.015625
15.44,1644481495.03125
16.26,1644481495.046875
16.86,1644481495.0625
17.36,1644481495.078125
17.87,1644481495.09375
18.42,1644481495.109375
19.0,1644481495.125
19.46,1644481495.140625
19.7,1644481495.15625
19.66,1644481495.171875
19.38,1644481495.1875
18.96,1644481495.203125
18.55,1644481495.21875
18.23,1644481495.234375
18.0,1644481495.25
17.8,1644481495.265625
17.56,1644481495.28125
17.23,1644481495.296875
16.87,1644481495.3125
16.48,1644481495.328125
16.07,1644481495.34375
15.56,1644481495.359375
14.89,1644481495.375
13.96,1644481495.390625
12.82,1644481495.40625
11.53,1644481495.421875
10.18,1644481495.4375
8.8,1644481495.453125
7.3,1644481495.46875
5.56,1644481495.484375
3.48,1644481495.5
1.0,1644481495.515625
-1.74,1644481495.53125
-4.5,1644481495.546875
-7.06,1644481495.5625
-9.25,1644481495.578125
-11.06,1644481495.59375
-12.58,1644481495.609375
-13.98,1644481495.625
-15.42,1644481495.640625
-17.06,1644481495.65625
-18.98,1644481495.671875
-21.15,1644481495.6875
-23.41,1644481495.703125
-25.47,1644481495.71875
-26.95,1644481495.734375
-27.48,1644481495.75
-26.88,1644481495.765625
-25.14,1644481495.78125
-22.5,1644481495.796875
-19.28,1644481495.8125
-15.84,1644481495.828125
-12.43,1644481495.84375
-9.2,1644481495.859375
-6.22,1644481495.875
-3.52,1644481495.890625
-1.14,1644481495.90625
0.9,1644481495.921875
2.57,1644481495.9375
3.93,1644481495.953125
5.07,1644481495.96875
6.1,1644481495.984375
7.13,1644481496.0
8.18,1644481496.015625
9.25,1644481496.03125
10.29,1644481496.046875
11.29,1644481496.0625
12.25,1644481496.078125
13.19,1644481496.09375
14.13,1644481496.109375
15.04,1644481496.125
15.84,1644481496.140625
16.41,1644481496.15625
16.67,1644481496.171875
16.62,1644481496.1875
16.28,1644481496.203125
15.71,1644481496.21875
14.95,1644481496.234375
14.01,1644481496.25
12.83,1644481496.265625
11.37,1644481496.28125
9.68,1644481496.296875
7.84,1644481496.3125
6.03,1644481496.328125
4.39,1644481496.34375
2.99,1644481496.359375
1.79,1644481496.375
0.69,1644481496.390625
-0.48,1644481496.40625
-1.78,1644481496.421875
-3.23,1644481496.4375
-4.78,1644481496.453125
-6.34,1644481496.46875
-7.87,1644481496.484375
-9.39,1644481496.5
-10.96,1644481496.515625
-12.65,1644481496.53125
-14.52,1644481496.546875
-16.56,1644481496.5625
-18.75,1644481496.578125
-21.05,1644481496.59375
-23.36,1644481496.609375
-25.49,1644481496.625
-27.14,1644481496.640625
-27.93,1644481496.65625
-27.49,1644481496.671875
-25.64,1644481496.6875
-22.49,1644481496.703125
-18.39,1644481496.71875
-13.94,1644481496.734375
-9.72,1644481496.75
-6.14,1644481496.765625
-3.32,1644481496.78125
-1.18,1644481496.796875
0.54,1644481496.8125
2.03,1644481496.828125
3.44,1644481496.84375
4.79,1644481496.859375
6.11,1644481496.875
7.4,1644481496.890625
8.66,1644481496.90625
9.85,1644481496.921875
10.88,1644481496.9375
11.65,1644481496.953125
12.14,1644481496.96875
12.37,1644481496.984375
12.53,1644481497.0
12.76,1644481497.015625
13.18,1644481497.03125
13.76,1644481497.046875
14.38,1644481497.0625
14.94,1644481497.078125
15.36,1644481497.09375
15.62,1644481497.109375
15.72,1644481497.125
15.7,1644481497.140625
15.5,1644481497.15625
15.07,1644481497.171875
14.38,1644481497.1875
13.46,1644481497.203125
12.36,1644481497.21875
11.13,1644481497.234375
9.84,1644481497.25
8.49,1644481497.265625
7.09,1644481497.28125
5.61,1644481497.296875
4.09,1644481497.3125
2.56,1644481497.328125
1.08,1644481497.34375
-0.36,1644481497.359375
-1.83,1644481497.375
-3.43,1644481497.390625
-5.26,1644481497.40625
-7.29,1644481497.421875
-9.46,1644481497.4375
-11.58,1644481497.453125
-13.54,1644481497.46875
-15.34,1644481497.484375
-17.13,1644481497.5
-19.19,1644481497.515625
-21.69,1644481497.53125
-24.68,1644481497.546875
-27.87,1644481497.5625
-30.71,1644481497.578125
-32.56,1644481497.59375
-32.88,1644481497.609375
-31.46,1644481497.625
-28.43,1644481497.640625
-24.28,1644481497.65625
-19.54,1644481497.671875
-14.8,1644481497.6875
-10.37,1644481497.703125
-6.44,1644481497.71875
-3.05,1644481497.734375
-0.11,1644481497.75
2.48,1644481497.765625
4.89,1644481497.78125
7.18,1644481497.796875
9.41,1644481497.8125
11.48,1644481497.828125
13.3,1644481497.84375
14.76,1644481497.859375
15.79,1644481497.875
16.47,1644481497.890625
16.88,1644481497.90625
17.18,1644481497.921875
17.43,1644481497.9375
17.73,1644481497.953125
18.15,1644481497.96875
18.71,1644481497.984375
19.44,1644481498.0
20.22,1644481498.015625
20.93,1644481498.03125
21.32,1644481498.046875
21.25,1644481498.0625
20.64,1644481498.078125
19.62,1644481498.09375
18.37,1644481498.109375
17.07,1644481498.125
15.83,1644481498.140625
14.61,1644481498.15625
13.33,1644481498.171875
11.9,1644481498.1875
10.3,1644481498.203125
8.64,1644481498.21875
7.05,1644481498.234375
5.64,1644481498.25
4.41,1644481498.265625
3.29,1644481498.28125
2.13,1644481498.296875
0.82,1644481498.3125
-0.7,1644481498.328125
-2.41,1644481498.34375
-4.26,1644481498.359375
-6.21,1644481498.375
-8.18,1644481498.390625
-10.1,1644481498.40625
-11.88,1644481498.421875
-13.39,1644481498.4375
-14.63,1644481498.453125
-15.67,1644481498.46875
-16.74,1644481498.484375
-18.07,1644481498.5
-19.84,1644481498.515625
-22.03,1644481498.53125
-24.43,1644481498.546875
-26.62,1644481498.5625
-28.09,1644481498.578125
-28.44,1644481498.59375
-27.42,1644481498.609375
-25.03,1644481498.625
-21.62,1644481498.640625
-17.68,1644481498.65625
-13.73,1644481498.671875
-10.14,1644481498.6875
-7.09,1644481498.703125
-4.5,1644481498.71875
-2.23,1644481498.734375
-0.21,1644481498.75
1.56,1644481498.765625
2.98,1644481498.78125
4.03,1644481498.796875
4.8,1644481498.8125
5.52,1644481498.828125
6.4,1644481498.84375
7.56,1644481498.859375
8.95,1644481498.875
10.34,1644481498.890625
11.48,1644481498.90625
12.17,1644481498.921875
12.39,1644481498.9375
12.2,1644481498.953125
11.78,1644481498.96875
11.27,1644481498.984375
10.82,1644481499.0
10.48,1644481499.015625
10.29,1644481499.03125
10.27,1644481499.046875
10.38,1644481499.0625
10.59,1644481499.078125
10.81,1644481499.09375
10.89,1644481499.109375
10.67,1644481499.125
10.01,1644481499.140625
8.9,1644481499.15625
7.48,1644481499.171875
5.97,1644481499.1875
4.59,1644481499.203125
3.48,1644481499.21875
2.6,1644481499.234375
1.76,1644481499.25
0.76,1644481499.265625
-0.56,1644481499.28125
-2.21,1644481499.296875
-4.12,1644481499.3125
-6.12,1644481499.328125
-8.07,1644481499.34375
-9.92,1644481499.359375
-11.73,1644481499.375
-13.6,1644481499.390625
-15.66,1644481499.40625
-17.96,1644481499.421875
-20.44,1644481499.4375
-22.86,1644481499.453125
-24.85,1644481499.46875
-26.01,1644481499.484375
-26.0,1644481499.5
-24.67,1644481499.515625
-22.12,1644481499.53125
-18.62,1644481499.546875
-14.59,1644481499.5625
-10.47,1644481499.578125
-6.61,1644481499.59375
-3.25,1644481499.609375
-0.47,1644481499.625
1.74,1644481499.640625
3.54,1644481499.65625
5.14,1644481499.671875
6.78,1644481499.6875
8.64,1644481499.703125
10.77,1644481499.71875
13.02,1644481499.734375
15.16,1644481499.75
16.88,1644481499.765625
17.98,1644481499.78125
18.45,1644481499.796875
18.43,1644481499.8125
18.17,1644481499.828125
17.83,1644481499.84375
17.5,1644481499.859375
17.14,1644481499.875
16.74,1644481499.890625
16.3,1644481499.90625
15.92,1644481499.921875
15.65,1644481499.9375
15.52,1644481499.953125
15.4,1644481499.96875
15.13,1644481499.984375
14.58,1644481500.0
13.74,1644481500.015625
12.72,1644481500.03125
11.64,1644481500.046875
10.64,1644481500.0625
9.65,1644481500.078125
8.62,1644481500.09375
7.39,1644481500.109375
5.86,1644481500.125
4.06,1644481500.140625
2.04,1644481500.15625
-0.13,1644481500.171875
-2.37,1644481500.1875
-4.65,1644481500.203125
-6.96,1644481500.21875
-9.26,1644481500.234375
-11.54,1644481500.25
-13.72,1644481500.265625
-15.74,1644481500.28125
-17.58,1644481500.296875
-19.33,1644481500.3125
-21.07,1644481500.328125
-22.94,1644481500.34375
-24.99,1644481500.359375
-27.19,1644481500.375
-29.38,1644481500.390625
-31.26,1644481500.40625
-32.5,1644481500.421875
-32.77,1644481500.4375
-31.81,1644481500.453125
-29.53,1644481500.46875
-26.01,1644481500.484375
-21.57,1644481500.5
-16.64,1644481500.515625
-11.73,1644481500.53125
-7.23,1644481500.546875
-3.37,1644481500.5625
-0.25,1644481500.578125
2.11,1644481500.59375
3.7,1644481500.609375
4.55,1644481500.625
4.8,1644481500.640625
4.7,1644481500.65625
4.61,1644481500.671875
4.9,1644481500.6875
5.79,1644481500.703125
7.24,1644481500.71875
8.99,1644481500.734375
10.72,1644481500.75
12.14,1644481500.765625
13.19,1644481500.78125
13.99,1644481500.796875
14.75,1644481500.8125
15.6,1644481500.828125
16.55,1644481500.84375
17.44,1644481500.859375
18.06,1644481500.875
18.28,1644481500.890625
18.07,1644481500.90625
17.55,1644481500.921875
16.89,1644481500.9375
16.21,1644481500.953125
15.55,1644481500.96875
14.84,1644481500.984375
13.95,1644481501.0
12.8,1644481501.015625
11.36,1644481501.03125
9.69,1644481501.046875
7.87,1644481501.0625
5.99,1644481501.078125
4.13,1644481501.09375
2.29,1644481501.109375
0.52,1644481501.125
-1.16,1644481501.140625
-2.72,1644481501.15625
-4.14,1644481501.171875
-5.46,1644481501.1875
-6.68,1644481501.203125
-7.88,1644481501.21875
-9.12,1644481501.234375
-10.47,1644481501.25
-11.9,1644481501.265625
-13.35,1644481501.28125
-14.86,1644481501.296875
-16.48,1644481501.3125
-18.41,1644481501.328125
-20.81,1644481501.34375
-23.66,1644481501.359375
-26.72,1644481501.375
-29.51,1644481501.390625
-31.41,1644481501.40625
-31.88,1644481501.421875
-30.66,1644481501.4375
-27.77,1644481501.453125
-23.49,1644481501.46875
-18.27,1644481501.484375
-12.59,1644481501.5
-6.97,1644481501.515625
-1.83,1644481501.53125
2.54,1644481501.546875
6.05,1644481501.5625
8.78,1644481501.578125
11.01,1644481501.59375
12.99,1644481501.609375
14.89,1644481501.625
16.75,1644481501.640625
18.46,1644481501.65625
19.88,1644481501.671875
20.89,1644481501.6875
21.41,1644481501.703125
21.47,1644481501.71875
21.14,1644481501.734375
20.56,1644481501.75
19.93,1644481501.765625
19.46,1644481501.78125
19.28,1644481501.796875
19.42,1644481501.8125
19.74,1644481501.828125
20.0,1644481501.84375
19.95,1644481501.859375
19.4,1644481501.875
18.36,1644481501.890625
16.97,1644481501.90625
15.46,1644481501.921875
14.08,1644481501.9375
12.96,1644481501.953125
12.06,1644481501.96875
11.25,1644481501.984375
10.36,1644481502.0
9.28,1644481502.015625
7.99,1644481502.03125
6.5,1644481502.046875
4.81,1644481502.0625
2.97,1644481502.078125
0.98,1644481502.09375
-1.12,1644481502.109375
-3.21,1644481502.125
-5.12,1644481502.140625
-6.76,1644481502.15625
-8.12,1644481502.171875
-9.31,1644481502.1875
-10.41,1644481502.203125
-11.53,1644481502.21875
-12.61,1644481502.234375
-13.63,1644481502.25
-14.59,1644481502.265625
-15.56,1644481502.28125
-16.74,1644481502.296875
-18.36,1644481502.3125
-20.55,1644481502.328125
-23.18,1644481502.34375
-25.92,1644481502.359375
-28.18,1644481502.375
-29.38,1644481502.390625
-29.05,1644481502.40625
-27.05,1644481502.421875
-23.54,1644481502.4375
-18.97,1644481502.453125
-13.86,1644481502.46875
-8.7,1644481502.484375
-3.88,1644481502.5
0.36,1644481502.515625
3.87,1644481502.53125
6.6,1644481502.546875
8.62,1644481502.5625
10.06,1644481502.578125
11.19,1644481502.59375
12.22,1644481502.609375
13.34,1644481502.625
14.6,1644481502.640625
16.01,1644481502.65625
17.5,1644481502.671875
18.95,1644481502.6875
20.3,1644481502.703125
21.48,1644481502.71875
22.4,1644481502.734375
23.01,1644481502.75
23.3,1644481502.765625
23.26,1644481502.78125
22.95,1644481502.796875
22.39,1644481502.8125
21.6,1644481502.828125
20.57,1644481502.84375
19.33,1644481502.859375
17.92,1644481502.875
16.44,1644481502.890625
14.97,1644481502.90625
13.62,1644481502.921875
12.43,1644481502.9375
11.36,1644481502.953125
10.4,1644481502.96875
9.48,1644481502.984375
8.59,1644481503.0
7.69,1644481503.015625
6.78,1644481503.03125
5.8,1644481503.046875
4.67,1644481503.0625
3.36,1644481503.078125
1.87,1644481503.09375
0.25,1644481503.109375
-1.42,1644481503.125
-3.03,1644481503.140625
-4.57,1644481503.15625
-5.96,1644481503.171875
-7.23,1644481503.1875
-8.37,1644481503.203125
-9.36,1644481503.21875
-10.17,1644481503.234375
-10.85,1644481503.25
-11.5,1644481503.265625
-12.32,1644481503.28125
-13.56,1644481503.296875
-15.41,1644481503.3125
-17.97,1644481503.328125
-21.15,1644481503.34375
-24.57,1644481503.359375
-27.69,1644481503.375
-29.83,1644481503.390625
-30.46,1644481503.40625
-29.29,1644481503.421875
-26.43,1644481503.4375
-22.34,1644481503.453125
-17.66,1644481503.46875
-13.01,1644481503.484375
-8.87,1644481503.5
-5.48,1644481503.515625
-2.86,1644481503.53125
-0.84,1644481503.546875
0.79,1644481503.5625
2.17,1644481503.578125
3.42,1644481503.59375
4.59,1644481503.609375
5.71,1644481503.625
6.76,1644481503.640625
7.69,1644481503.65625
8.41,1644481503.671875
8.87,1644481503.6875
9.07,1644481503.703125
9.13,1644481503.71875
9.23,1644481503.734375
9.59,1644481503.75
10.29,1644481503.765625
11.29,1644481503.78125
12.36,1644481503.796875
13.24,1644481503.8125
13.75,1644481503.828125
13.88,1644481503.84375
13.72,1644481503.859375
13.39,1644481503.875
12.94,1644481503.890625
12.33,1644481503.90625
11.5,1644481503.921875
10.38,1644481503.9375
9.01,1644481503.953125
7.49,1644481503.96875
5.91,1644481503.984375
4.33,1644481504.0
2.72,1644481504.015625
1.01,1644481504.03125
-0.89,1644481504.046875
-2.98,1644481504.0625
-5.18,1644481504.078125
-7.34,1644481504.09375
-9.27,1644481504.109375
-10.83,1644481504.125
-12.05,1644481504.140625
-13.04,1644481504.15625
-14.04,1644481504.171875
-15.31,1644481504.1875
-17.04,1644481504.203125
-19.27,1644481504.21875
-21.84,1644481504.234375
-24.39,1644481504.25
-26.39,1644481504.265625
-27.34,1644481504.28125
-26.87,1644481504.296875
-24.83,1644481504.3125
-21.47,1644481504.328125
-17.2,1644481504.34375
-12.59,1644481504.359375
-8.12,1644481504.375
-4.14,1644481504.390625
-0.81,1644481504.40625
1.91,1644481504.421875
4.13,1644481504.4375
6.09,1644481504.453125
7.96,1644481504.46875
9.87,1644481504.484375
11.82,1644481504.5
13.68,1644481504.515625
15.21,1644481504.53125
16.26,1644481504.546875
16.77,1644481504.5625
16.86,1644481504.578125
16.79,1644481504.59375
16.76,1644481504.609375
16.87,1644481504.625
17.03,1644481504.640625
17.05,1644481504.65625
16.79,1644481504.671875
16.24,1644481504.6875
15.55,1644481504.703125
14.92,1644481504.71875
14.42,1644481504.734375
14.01,1644481504.75
13.49,1644481504.765625
12.68,1644481504.78125
11.5,1644481504.796875
10.05,1644481504.8125
8.53,1644481504.828125
7.16,1644481504.84375
6.06,1644481504.859375
5.18,1644481504.875
4.37,1644481504.890625
3.46,1644481504.90625
2.28,1644481504.921875
0.74,1644481504.9375
-1.15,1644481504.953125
-3.33,1644481504.96875
-5.66,1644481504.984375
-7.98,1644481505.0
-10.1,1644481505.015625
-11.96,1644481505.03125
-13.54,1644481505.046875
-15.0,1644481505.0625
-16.55,1644481505.078125
-18.43,1644481505.09375
-20.77,1644481505.109375
-23.58,1644481505.125
-26.68,1644481505.140625
-29.71,1644481505.15625
-32.2,1644481505.171875
-33.58,1644481505.1875
-33.35,1644481505.203125
-31.28,1644481505.21875
-27.49,1644481505.234375
-22.5,1644481505.25
-17.03,1644481505.265625
-11.81,1644481505.28125
-7.29,1644481505.296875
-3.6,1644481505.3125
-0.59,1644481505.328125
2.04,1644481505.34375
4.5,1644481505.359375
6.89,1644481505.375
9.15,1644481505.390625
11.16,1644481505.40625
12.83,1644481505.421875
14.16,1644481505.4375
15.16,1644481505.453125
15.9,1644481505.46875
16.4,1644481505.484375
16.64,1644481505.5
16.58,1644481505.515625
16.22,1644481505.53125
15.61,1644481505.546875
14.88,1644481505.5625
14.22,1644481505.578125
13.77,1644481505.59375
13.56,1644481505.609375
13.5,1644481505.625
13.38,1644481505.640625
12.98,1644481505.65625
12.19,1644481505.671875
11.04,1644481505.6875
9.69,1644481505.703125
8.34,1644481505.71875
7.16,1644481505.734375
6.14,1644481505.75
5.18,1644481505.765625
4.08,1644481505.78125
2.7,1644481505.796875
0.95,1644481505.8125
-1.16,1644481505.828125
-3.51,1644481505.84375
-5.89,1644481505.859375
-8.08,1644481505.875
-9.86,1644481505.890625
-11.16,1644481505.90625
-12.03,1644481505.921875
-12.69,1644481505.9375
-13.46,1644481505.953125
-14.65,1644481505.96875
-16.46,1644481505.984375
-18.89,1644481506.0
-21.71,1644481506.015625
-24.5,1644481506.03125
-26.77,1644481506.046875
-28.01,1644481506.0625
-27.89,1644481506.078125
-26.29,1644481506.09375
-23.36,1644481506.109375
-19.5,1644481506.125
-15.2,1644481506.140625
-10.94,1644481506.15625
-7.07,1644481506.171875
-3.76,1644481506.1875
-0.95,1644481506.203125
1.45,1644481506.21875
3.63,1644481506.234375
5.69,1644481506.25
7.7,1644481506.265625
9.63,1644481506.28125
11.4,1644481506.296875
12.88,1644481506.3125
13.94,1644481506.328125
14.57,1644481506.34375
14.78,1644481506.359375
14.73,1644481506.375
14.59,1644481506.390625
14.48,1644481506.40625
14.44,1644481506.421875
14.46,1644481506.4375
14.43,1644481506.453125
14.31,1644481506.46875
14.07,1644481506.484375
13.7,1644481506.5
13.24,1644481506.515625
12.69,1644481506.53125
12.01,1644481506.546875
11.15,1644481506.5625
10.06,1644481506.578125
8.75,1644481506.59375
7.35,1644481506.609375
5.99,1644481506.625
4.81,1644481506.640625
3.77,1644481506.65625
2.73,1644481506.671875
1.46,1644481506.6875
-0.17,1644481506.703125
-2.14,1644481506.71875
-4.25,1644481506.734375
-6.22,1644481506.75
-7.88,1644481506.765625
-9.24,1644481506.78125
-10.53,1644481506.796875
-11.97,1644481506.8125
-13.77,1644481506.828125
-15.96,1644481506.84375
-18.47,1644481506.859375
-21.19,1644481506.875
-24.04,1644481506.890625
-26.93,1644481506.90625
-29.7,1644481506.921875
-32.06,1644481506.9375
-33.58,1644481506.953125
-33.83,1644481506.96875
-32.55,1644481506.984375
-29.77,1644481507.0
-25.8,1644481507.015625
-21.19,1644481507.03125
-16.5,1644481507.046875
-12.16,1644481507.0625
-8.41,1644481507.078125
-5.25,1644481507.09375
-2.53,1644481507.109375
-0.12,1644481507.125
2.16,1644481507.140625
4.38,1644481507.15625
6.57,1644481507.171875
8.72,1644481507.1875
10.82,1644481507.203125
12.86,1644481507.21875
14.83,1644481507.234375
16.68,1644481507.25
18.33,1644481507.265625
19.67,1644481507.28125
20.61,1644481507.296875
21.13,1644481507.3125
21.3,1644481507.328125
21.24,1644481507.34375
21.06,1644481507.359375
20.85,1644481507.375
20.6,1644481507.390625
20.23,1644481507.40625
19.7,1644481507.421875
18.97,1644481507.4375
18.07,1644481507.453125
17.06,1644481507.46875
16.01,1644481507.484375
14.98,1644481507.5
14.01,1644481507.515625
13.15,1644481507.53125
12.41,1644481507.546875
11.79,1644481507.5625
11.28,1644481507.578125
10.8,1644481507.59375
10.27,1644481507.609375
9.57,1644481507.625
8.6,1644481507.640625
7.31,1644481507.65625
5.74,1644481507.671875
4.02,1644481507.6875
2.33,1644481507.703125
0.83,1644481507.71875
-0.4,1644481507.734375
-1.39,1644481507.75
-2.34,1644481507.765625
-3.51,1644481507.78125
-5.14,1644481507.796875
-7.29,1644481507.8125
-9.79,1644481507.828125
-12.32,1644481507.84375
-14.55,1644481507.859375
-16.37,1644481507.875
-17.96,1644481507.890625
-19.78,1644481507.90625
-22.26,1644481507.921875
-25.64,1644481507.9375
-29.68,1644481507.953125
-33.8,1644481507.96875
-37.2,1644481507.984375
-39.19,1644481508.0
-39.36,1644481508.015625
-37.67,1644481508.03125
-34.38,1644481508.046875
-29.9,1644481508.0625
-24.71,1644481508.078125
-19.27,1644481508.09375
-14.05,1644481508.109375
-9.4,1644481508.125
-5.51,1644481508.140625
-2.4,1644481508.15625
0.13,1644481508.171875
2.42,1644481508.1875
4.79,1644481508.203125
7.44,1644481508.21875
10.3,1644481508.234375
13.11,1644481508.25
15.52,1644481508.265625
17.2,1644481508.28125
18.07,1644481508.296875
18.23,1644481508.3125
17.97,1644481508.328125
17.6,1644481508.34375
17.35,1644481508.359375
17.3,1644481508.375
17.47,1644481508.390625
17.77,1644481508.40625
18.18,1644481508.421875
18.7,1644481508.4375
19.34,1644481508.453125
20.03,1644481508.46875
20.61,1644481508.484375
20.86,1644481508.5
20.58,1644481508.515625
19.77,1644481508.53125
18.57,1644481508.546875
17.27,1644481508.5625
16.16,1644481508.578125
15.4,1644481508.59375
14.97,1644481508.609375
14.68,1644481508.625
14.3,1644481508.640625
13.66,1644481508.65625
12.75,1644481508.671875
11.69,1644481508.6875
10.61,1644481508.703125
9.61,1644481508.71875
8.7,1644481508.734375
7.81,1644481508.75
6.82,1644481508.765625
5.65,1644481508.78125
4.3,1644481508.796875
2.84,1644481508.8125
1.35,1644481508.828125
-0.07,1644481508.84375
-1.37,1644481508.859375
-2.58,1644481508.875
-3.74,1644481508.890625
-4.89,1644481508.90625
-6.08,1644481508.921875
-7.34,1644481508.9375
-8.71,1644481508.953125
-10.24,1644481508.96875
-11.94,1644481508.984375
-13.74,1644481509.0
-15.54,1644481509.015625
-17.22,1644481509.03125
-18.71,1644481509.046875
-20.07,1644481509.0625
-21.48,1644481509.078125
-23.22,1644481509.09375
-25.44,1644481509.109375
-28.1,1644481509.125
-30.85,1644481509.140625
-33.09,1644481509.15625
-34.17,1644481509.171875
-33.61,1644481509.1875
-31.28,1644481509.203125
-27.44,1644481509.21875
-22.66,1644481509.234375
-17.61,1644481509.25
-12.91,1644481509.265625
-8.97,1644481509.28125
-5.97,1644481509.296875
-3.81,1644481509.3125
-2.29,1644481509.328125
-1.11,1644481509.34375
0.05,1644481509.359375
1.43,1644481509.375
3.17,1644481509.390625
5.28,1644481509.40625
7.67,1644481509.421875
10.14,1644481509.4375
12.48,1644481509.453125
14.5,1644481509.46875
16.09,1644481509.484375
17.27,1644481509.5
18.2,1644481509.515625
19.07,1644481509.53125
20.05,1644481509.546875
21.18,1644481509.5625
22.36,1644481509.578125
23.39,1644481509.59375
24.09,1644481509.609375
24.4,1644481509.625
24.31,1644481509.640625
23.86,1644481509.65625
23.1,1644481509.671875
22.04,1644481509.6875
20.73,1644481509.703125
19.26,1644481509.71875
17.77,1644481509.734375
16.36,1644481509.75
15.12,1644481509.765625
13.98,1644481509.78125
12.84,1644481509.796875
11.62,1644481509.8125
10.34,1644481509.828125
9.11,1644481509.84375
8.04,1644481509.859375
7.18,1644481509.875
6.43,1644481509.890625
5.68,1644481509.90625
4.79,1644481509.921875
3.72,1644481509.9375
2.53,1644481509.953125
1.36,1644481509.96875
0.32,1644481509.984375
-0.56,1644481510.0
-1.4,1644481510.015625
-2.38,1644481510.03125
-3.68,1644481510.046875
-5.38,1644481510.0625
-7.4,1644481510.078125
-9.54,1644481510.09375
-11.58,1644481510.109375
-13.38,1644481510.125
-14.92,1644481510.140625
-16.3,1644481510.15625
-17.69,1644481510.171875
-19.19,1644481510.1875
-20.83,1644481510.203125
-22.55,1644481510.21875
-24.22,1644481510.234375
-25.7,1644481510.25
-26.83,1644481510.265625
-27.35,1644481510.28125
-27.01,1644481510.296875
-25.55,1644481510.3125
-22.9,1644481510.328125
-19.24,1644481510.34375
-15.01,1644481510.359375
-10.76,1644481510.375
-7.01,1644481510.390625
-4.04,1644481510.40625
-1.83,1644481510.421875
-0.12,1644481510.4375
1.45,1644481510.453125
3.13,1644481510.46875
4.99,1644481510.484375
6.92,1644481510.5
8.76,1644481510.515625
10.38,1644481510.53125
11.7,1644481510.546875
12.75,1644481510.5625
13.55,1644481510.578125
14.12,1644481510.59375
14.47,1644481510.609375
14.65,1644481510.625
14.75,1644481510.640625
14.94,1644481510.65625
15.28,1644481510.671875
15.78,1644481510.6875
16.32,1644481510.703125
16.73,1644481510.71875
16.89,1644481510.734375
16.71,1644481510.75
16.26,1644481510.765625
15.62,1644481510.78125
14.91,1644481510.796875
14.16,1644481510.8125
13.38,1644481510.828125
12.58,1644481510.84375
11.73,1644481510.859375
10.85,1644481510.875
9.93,1644481510.890625
8.95,1644481510.90625
7.89,1644481510.921875
6.73,1644481510.9375
5.46,1644481510.953125
4.11,1644481510.96875
2.76,1644481510.984375
1.5,1644481511.0
0.42,1644481511.015625
-0.52,1644481511.03125
-1.42,1644481511.046875
-2.46,1644481511.0625
-3.8,1644481511.078125
-5.49,1644481511.09375
-7.48,1644481511.109375
-9.56,1644481511.125
-11.54,1644481511.140625
-13.3,1644481511.15625
-14.85,1644481511.171875
-16.28,1644481511.1875
-17.75,1644481511.203125
-19.36,1644481511.21875
-21.19,1644481511.234375
-23.25,1644481511.25
-25.46,1644481511.265625
-27.63,1644481511.28125
-29.46,1644481511.296875
-30.55,1644481511.3125
-30.52,1644481511.328125
-29.2,1644481511.34375
-26.63,1644481511.359375
-23.1,1644481511.375
-19.04,1644481511.390625
-14.85,1644481511.40625
-10.86,1644481511.421875
-7.26,1644481511.4375
-4.08,1644481511.453125
-1.33,1644481511.46875
1.01,1644481511.484375
3.03,1644481511.5
4.81,1644481511.515625
6.47,1644481511.53125
8.09,1644481511.546875
9.66,1644481511.5625
11.1,1644481511.578125
12.35,1644481511.59375
13.33,1644481511.609375
14.05,1644481511.625
14.6,1644481511.640625
15.1,1644481511.65625
15.65,1644481511.671875
16.35,1644481511.6875
17.18,1644481511.703125
18.01,1644481511.71875
18.71,1644481511.734375
19.1,1644481511.75
19.11,1644481511.765625
18.71,1644481511.78125
17.99,1644481511.796875
17.06,1644481511.8125
16.1,1644481511.828125
15.21,1644481511.84375
14.48,1644481511.859375
13.9,1644481511.875
13.39,1644481511.890625
12.84,1644481511.90625
12.14,1644481511.921875
11.28,1644481511.9375
10.31,1644481511.953125
9.38,1644481511.96875
8.57,1644481511.984375
7.89,1644481512.0
7.22,1644481512.015625
6.43,1644481512.03125
5.41,1644481512.046875
4.21,1644481512.0625
2.95,1644481512.078125
1.77,1644481512.09375
0.74,1644481512.109375
-0.16,1644481512.125
-1.07,1644481512.140625
-2.07,1644481512.15625
-3.23,1644481512.171875
-4.51,1644481512.1875
-5.82,1644481512.203125
-7.12,1644481512.21875
-8.39,1644481512.234375
-9.66,1644481512.25
-10.95,1644481512.265625
-12.25,1644481512.28125
-13.52,1644481512.296875
-14.77,1644481512.3125
-16.04,1644481512.328125
-17.46,1644481512.34375
-19.15,1644481512.359375
-21.18,1644481512.375
-23.49,1644481512.390625
-25.8,1644481512.40625
-27.69,1644481512.421875
-28.72,1644481512.4375
-28.53,1644481512.453125
-26.96,1644481512.46875
-24.12,1644481512.484375
-20.34,1644481512.5
-16.1,1644481512.515625
-11.86,1644481512.53125
-8.0,1644481512.546875
-4.72,1644481512.5625
-2.06,1644481512.578125
0.08,1644481512.59375
1.8,1644481512.609375
3.29,1644481512.625
4.6,1644481512.640625
5.82,1644481512.65625
6.93,1644481512.671875
7.89,1644481512.6875
8.68,1644481512.703125
9.3,1644481512.71875
9.82,1644481512.734375
10.33,1644481512.75
10.88,1644481512.765625
11.45,1644481512.78125
11.93,1644481512.796875
12.2,1644481512.8125
12.21,1644481512.828125
11.96,1644481512.84375
11.62,1644481512.859375
11.37,1644481512.875
11.31,1644481512.890625
11.41,1644481512.90625
11.54,1644481512.921875
11.51,1644481512.9375
11.23,1644481512.953125
10.69,1644481512.96875
9.94,1644481512.984375
9.06,1644481513.0
8.1,1644481513.015625
7.05,1644481513.03125
5.92,1644481513.046875
4.76,1644481513.0625
3.69,1644481513.078125
2.83,1644481513.09375
2.25,1644481513.109375
1.89,1644481513.125
1.58,1644481513.140625
1.15,1644481513.15625
0.5,1644481513.171875
-0.35,1644481513.1875
-1.26,1644481513.203125
-2.14,1644481513.21875
-2.95,1644481513.234375
-3.73,1644481513.25
-4.63,1644481513.265625
-5.74,1644481513.28125
-7.05,1644481513.296875
-8.46,1644481513.3125
-9.81,1644481513.328125
-10.96,1644481513.34375
-11.91,1644481513.359375
-12.7,1644481513.375
-13.51,1644481513.390625
-14.52,1644481513.40625
-15.82,1644481513.421875
-17.41,1644481513.4375
-19.14,1644481513.453125
-20.68,1644481513.46875
-21.66,1644481513.484375
-21.71,1644481513.5
-20.62,1644481513.515625
-18.42,1644481513.53125
-15.31,1644481513.546875
-11.66,1644481513.5625
-7.89,1644481513.578125
-4.37,1644481513.59375
-1.38,1644481513.609375
0.93,1644481513.625
2.55,1644481513.640625
3.64,1644481513.65625
4.42,1644481513.671875
5.11,1644481513.6875
5.87,1644481513.703125
6.73,1644481513.71875
7.56,1644481513.734375
8.26,1644481513.75
8.75,1644481513.765625
8.98,1644481513.78125
9.0,1644481513.796875
8.81,1644481513.8125
8.46,1644481513.828125
7.97,1644481513.84375
7.45,1644481513.859375
7.05,1644481513.875
6.96,1644481513.890625
7.28,1644481513.90625
7.93,1644481513.921875
8.65,1644481513.9375
9.14,1644481513.953125
9.14,1644481513.96875
8.62,1644481513.984375
7.73,1644481514.0
6.81,1644481514.015625
6.14,1644481514.03125
5.85,1644481514.046875
5.86,1644481514.0625
5.91,1644481514.078125
5.72,1644481514.09375
5.12,1644481514.109375
4.12,1644481514.125
2.87,1644481514.140625
1.58,1644481514.15625
0.41,1644481514.171875
-0.56,1644481514.1875
-1.36,1644481514.203125
-2.04,1644481514.21875
-2.71,1644481514.234375
-3.44,1644481514.25
-4.25,1644481514.265625
-5.18,1644481514.28125
-6.2,1644481514.296875
-7.34,1644481514.3125
-8.58,1644481514.328125
-9.92,1644481514.34375
-11.35,1644481514.359375
-12.9,1644481514.375
-14.6,1644481514.390625
-16.5,1644481514.40625
-18.65,1644481514.421875
-21.02,1644481514.4375
-23.52,1644481514.453125
-25.89,1644481514.46875
-27.79,1644481514.484375
-28.82,1644481514.5
-28.69,1644481514.515625
-27.29,1644481514.53125
-24.7,1644481514.546875
-21.18,1644481514.5625
-17.03,1644481514.578125
-12.61,1644481514.59375
-8.22,1644481514.609375
-4.14,1644481514.625
-0.64,1644481514.640625
2.1,1644481514.65625
3.99,1644481514.671875
5.11,1644481514.6875
5.73,1644481514.703125
6.12,1644481514.71875
6.5,1644481514.734375
6.99,1644481514.75
7.59,1644481514.765625
8.24,1644481514.78125
8.86,1644481514.796875
9.43,1644481514.8125
9.93,1644481514.828125
10.3,1644481514.84375
10.55,1644481514.859375
10.71,1644481514.875
10.89,1644481514.890625
11.16,1644481514.90625
11.57,1644481514.921875
11.99,1644481514.9375
12.29,1644481514.953125
12.34,1644481514.96875
12.08,1644481514.984375
11.58,1644481515.0
10.99,1644481515.015625
10.41,1644481515.03125
9.89,1644481515.046875
9.42,1644481515.0625
8.96,1644481515.078125
8.47,1644481515.09375
7.97,1644481515.109375
7.4,1644481515.125
6.72,1644481515.140625
5.84,1644481515.15625
4.71,1644481515.171875
3.33,1644481515.1875
1.82,1644481515.203125
0.31,1644481515.21875
-1.06,1644481515.234375
-2.19,1644481515.25
-3.09,1644481515.265625
-3.88,1644481515.28125
-4.69,1644481515.296875
-5.65,1644481515.3125
-6.82,1644481515.328125
-8.13,1644481515.34375
-9.48,1644481515.359375
-10.76,1644481515.375
-11.87,1644481515.390625
-12.89,1644481515.40625
-13.96,1644481515.421875
-15.28,1644481515.4375
-16.99,1644481515.453125
-19.14,1644481515.46875
-21.58,1644481515.484375
-24.03,1644481515.5
-26.1,1644481515.515625
-27.35,1644481515.53125
-27.43,1644481515.546875
-26.15,1644481515.5625
-23.61,1644481515.578125
-20.18,1644481515.59375
-16.39,1644481515.609375
-12.74,1644481515.625
-9.63,1644481515.640625
-7.16,1644481515.65625
-5.2,1644481515.671875
-3.51,1644481515.6875
-1.86,1644481515.703125
-0.1,1644481515.71875
1.77,1644481515.734375
3.65,1644481515.75
5.42,1644481515.765625
7.0,1644481515.78125
8.37,1644481515.796875
9.54,1644481515.8125
10.53,1644481515.828125
11.3,1644481515.84375
11.81,1644481515.859375
12.02,1644481515.875
11.96,1644481515.890625
11.78,1644481515.90625
11.66,1644481515.921875
11.66,1644481515.9375
11.79,1644481515.953125
11.91,1644481515.96875
11.84,1644481515.984375
11.51,1644481516.0
10.99,1644481516.015625
10.4,1644481516.03125
9.92,1644481516.046875
9.6,1644481516.0625
9.38,1644481516.078125
9.15,1644481516.09375
8.75,1644481516.109375
8.09,1644481516.125
7.16,1644481516.140625
5.99,1644481516.15625
4.67,1644481516.171875
3.36,1644481516.1875
2.21,1644481516.203125
1.33,1644481516.21875
0.73,1644481516.234375
0.3,1644481516.25
-0.17,1644481516.265625
-0.89,1644481516.28125
-1.96,1644481516.296875
-3.4,1644481516.3125
-5.06,1644481516.328125
-6.77,1644481516.34375
-8.4,1644481516.359375
-9.85,1644481516.375
-11.15,1644481516.390625
-12.39,1644481516.40625
-13.68,1644481516.421875
-15.17,1644481516.4375
-16.94,1644481516.453125
-18.97,1644481516.46875
-21.09,1644481516.484375
-22.96,1644481516.5
-24.14,1644481516.515625
-24.24,1644481516.53125
-23.04,1644481516.546875
-20.58,1644481516.5625
-17.19,1644481516.578125
-13.4,1644481516.59375
-9.7,1644481516.609375
-6.49,1644481516.625
-3.91,1644481516.640625
-1.92,1644481516.65625
-0.32,1644481516.671875
1.07,1644481516.6875
2.36,1644481516.703125
3.61,1644481516.71875
4.86,1644481516.734375
6.1,1644481516.75
7.33,1644481516.765625
8.49,1644481516.78125
9.49,1644481516.796875
10.23,1644481516.8125
10.67,1644481516.828125
10.82,1644481516.84375
10.81,1644481516.859375
10.79,1644481516.875
10.93,1644481516.890625
11.33,1644481516.90625
11.98,1644481516.921875
12.76,1644481516.9375
13.49,1644481516.953125
13.99,1644481516.96875
14.1,1644481516.984375
13.74,1644481517.0
12.92,1644481517.015625
11.73,1644481517.03125
10.28,1644481517.046875
8.7,1644481517.0625
7.03,1644481517.078125
5.28,1644481517.09375
3.46,1644481517.109375
1.56,1644481517.125
-0.38,1644481517.140625
-2.37,1644481517.15625
-4.36,1644481517.171875
-6.32,1644481517.1875
-8.15,1644481517.203125
-9.71,1644481517.21875
-10.92,1644481517.234375
-11.8,1644481517.25
-12.5,1644481517.265625
-13.29,1644481517.28125
-14.48,1644481517.296875
-16.18,1644481517.3125
-18.3,1644481517.328125
-20.45,1644481517.34375
-22.1,1644481517.359375
-22.7,1644481517.375
-21.98,1644481517.390625
-19.93,1644481517.40625
-16.86,1644481517.421875
-13.27,1644481517.4375
-9.67,1644481517.453125
-6.44,1644481517.46875
-3.76,1644481517.484375
-1.61,1644481517.5
0.13,1644481517.515625
1.61,1644481517.53125
2.95,1644481517.546875
4.22,1644481517.5625
5.45,1644481517.578125
6.65,1644481517.59375
7.78,1644481517.609375
8.79,1644481517.625
9.6,1644481517.640625
10.18,1644481517.65625
10.55,1644481517.671875
10.77,1644481517.6875
10.94,1644481517.703125
11.16,1644481517.71875
11.49,1644481517.734375
11.93,1644481517.75
12.44,1644481517.765625
12.91,1644481517.78125
13.22,1644481517.796875
13.23,1644481517.8125
12.83,1644481517.828125
11.96,1644481517.84375
10.71,1644481517.859375
9.27,1644481517.875
7.82,1644481517.890625
6.55,1644481517.90625
5.52,1644481517.921875
4.66,1644481517.9375
3.81,1644481517.953125
2.83,1644481517.96875
1.59,1644481517.984375
0.07,1644481518.0
-1.7,1644481518.015625
-3.65,1644481518.03125
-5.67,1644481518.046875
-7.65,1644481518.0625
-9.51,1644481518.078125
-11.22,1644481518.09375
-12.79,1644481518.109375
-14.33,1644481518.125
-15.91,1644481518.140625
-17.58,1644481518.15625
-19.34,1644481518.171875
-21.1,1644481518.1875
-22.69,1644481518.203125
-23.84,1644481518.21875
-24.25,1644481518.234375
-23.67,1644481518.25
-21.99,1644481518.265625
-19.29,1644481518.28125
-15.82,1644481518.296875
-11.99,1644481518.3125
-8.22,1644481518.328125
-4.84,1644481518.34375
-2.04,1644481518.359375
0.21,1644481518.375
1.99,1644481518.390625
3.5,1644481518.40625
4.96,1644481518.421875
6.55,1644481518.4375
8.35,1644481518.453125
10.33,1644481518.46875
12.31,1644481518.484375
14.07,1644481518.5
15.42,1644481518.515625
16.28,1644481518.53125
16.67,1644481518.546875
16.72,1644481518.5625
16.61,1644481518.578125
16.47,1644481518.59375
16.42,1644481518.609375
16.54,1644481518.625
16.81,1644481518.640625
17.22,1644481518.65625
17.67,1644481518.671875
17.98,1644481518.6875
18.0,1644481518.703125
17.62,1644481518.71875
16.82,1644481518.734375
15.72,1644481518.75
14.49,1644481518.765625
13.32,1644481518.78125
12.32,1644481518.796875
11.51,1644481518.8125
10.79,1644481518.828125
10.02,1644481518.84375
9.08,1644481518.859375
7.95,1644481518.875
6.7,1644481518.890625
5.48,1644481518.90625
4.38,1644481518.921875
3.4,1644481518.9375
2.48,1644481518.953125
1.5,1644481518.96875
0.41,1644481518.984375
-0.75,1644481519.0
-1.92,1644481519.015625
-3.05,1644481519.03125
-4.21,1644481519.046875
-5.54,1644481519.0625
-7.2,1644481519.078125
-9.22,1644481519.09375
-11.5,1644481519.109375
-13.88,1644481519.125
-16.24,1644481519.140625
-18.6,1644481519.15625
-21.02,1644481519.171875
-23.5,1644481519.1875
-25.83,1644481519.203125
-27.6,1644481519.21875
-28.3,1644481519.234375
-27.54,1644481519.25
-25.27,1644481519.265625
-21.77,1644481519.28125
-17.61,1644481519.296875
-13.37,1644481519.3125
-9.53,1644481519.328125
-6.27,1644481519.34375
-3.56,1644481519.359375
-1.17,1644481519.375
1.12,1644481519.390625
3.46,1644481519.40625
5.85,1644481519.421875
8.19,1644481519.4375
10.4,1644481519.453125
12.41,1644481519.46875
14.26,1644481519.484375
16.03,1644481519.5
17.71,1644481519.515625
19.27,1644481519.53125
20.56,1644481519.546875
21.5,1644481519.5625
22.05,1644481519.578125
22.29,1644481519.59375
22.33,1644481519.609375
22.29,1644481519.625
22.17,1644481519.640625
21.97,1644481519.65625
21.6,1644481519.671875
21.02,1644481519.6875
20.26,1644481519.703125
19.34,1644481519.71875
18.35,1644481519.734375
17.37,1644481519.75
16.52,1644481519.765625
15.91,1644481519.78125
15.58,1644481519.796875
15.46,1644481519.8125
15.4,1644481519.828125
15.21,1644481519.84375
14.73,1644481519.859375
13.97,1644481519.875
13.0,1644481519.890625
11.93,1644481519.90625
10.83,1644481519.921875
9.68,1644481519.9375
8.43,1644481519.953125
7.02,1644481519.96875
5.51,1644481519.984375
4.03,1644481520.0
2.68,1644481520.015625
1.53,1644481520.03125
0.52,1644481520.046875
-0.46,1644481520.0625
-1.55,1644481520.078125
-2.85,1644481520.09375
-4.39,1644481520.109375
-6.09,1644481520.125
-7.85,1644481520.140625
-9.51,1644481520.15625
-10.97,1644481520.171875
-12.17,1644481520.1875
-13.18,1644481520.203125
-14.15,1644481520.21875
-15.31,1644481520.234375
-16.86,1644481520.25
-18.95,1644481520.265625
-21.5,1644481520.28125
-24.3,1644481520.296875
-26.95,1644481520.3125
-28.99,1644481520.328125
-29.98,1644481520.34375
-29.61,1644481520.359375
-27.79,1644481520.375
-24.69,1644481520.390625
-20.74,1644481520.40625
-16.49,1644481520.421875
-12.46,1644481520.4375
-8.97,1644481520.453125
-6.13,1644481520.46875
-3.79,1644481520.484375
-1.72,1644481520.5
0.35,1644481520.515625
2.54,1644481520.53125
4.84,1644481520.546875
7.13,1644481520.5625
9.24,1644481520.578125
11.01,1644481520.59375
12.38,1644481520.609375
13.34,1644481520.625
13.93,1644481520.640625
14.27,1644481520.65625
14.44,1644481520.671875
14.51,1644481520.6875
14.52,1644481520.703125
14.5,1644481520.71875
14.46,1644481520.734375
14.41,1644481520.75
14.34,1644481520.765625
14.24,1644481520.78125
14.08,1644481520.796875
13.82,1644481520.8125
13.41,1644481520.828125
12.88,1644481520.84375
12.27,1644481520.859375
11.7,1644481520.875
11.28,1644481520.890625
11.01,1644481520.90625
10.84,1644481520.921875
10.59,1644481520.9375
10.12,1644481520.953125
9.39,1644481520.96875
8.46,1644481520.984375
7.46,1644481521.0
6.49,1644481521.015625
5.52,1644481521.03125
4.41,1644481521.046875
3.04,1644481521.0625
1.39,1644481521.078125
-0.38,1644481521.09375
-2.04,1644481521.109375
-3.38,1644481521.125
-4.35,1644481521.140625
-5.05,1644481521.15625
-5.66,1644481521.171875
-6.33,1644481521.1875
-7.08,1644481521.203125
-7.84,1644481521.21875
-8.52,1644481521.234375
-9.13,1644481521.25
-9.8,1644481521.265625
-10.74,1644481521.28125
-12.15,1644481521.296875
-14.1,1644481521.3125
-16.5,1644481521.328125
-19.06,1644481521.34375
-21.31,1644481521.359375
-22.75,1644481521.375
-22.96,1644481521.390625
-21.73,1644481521.40625
-19.19,1644481521.421875
-15.76,1644481521.4375
-11.96,1644481521.453125
-8.31,1644481521.46875
-5.12,1644481521.484375
-2.45,1644481521.5
-0.22,1644481521.515625
1.79,1644481521.53125
3.67,1644481521.546875
5.45,1644481521.5625
7.06,1644481521.578125
8.4,1644481521.59375
9.4,1644481521.609375
10.06,1644481521.625
10.42,1644481521.640625
10.57,1644481521.65625
10.58,1644481521.671875
10.53,1644481521.6875
10.44,1644481521.703125
10.31,1644481521.71875
10.17,1644481521.734375
10.06,1644481521.75
10.04,1644481521.765625
10.16,1644481521.78125
10.39,1644481521.796875
10.65,1644481521.8125
10.77,1644481521.828125
10.57,1644481521.84375
9.97,1644481521.859375
9.0,1644481521.875
7.84,1644481521.890625
6.66,1644481521.90625
5.62,1644481521.921875
4.71,1644481521.9375
3.83,1644481521.953125
2.86,1644481521.96875
1.73,1644481521.984375
0.44,1644481522.0
-0.88,1644481522.015625
-2.14,1644481522.03125
-3.26,1644481522.046875
-4.25,1644481522.0625
-5.19,1644481522.078125
-6.12,1644481522.09375
-7.07,1644481522.109375
-8.05,1644481522.125
-9.02,1644481522.140625
-9.94,1644481522.15625
-10.8,1644481522.171875
-11.61,1644481522.1875
-12.35,1644481522.203125
-13.01,1644481522.21875
-13.63,1644481522.234375
-14.26,1644481522.25
-15.01,1644481522.265625
-15.99,1644481522.28125
-17.22,1644481522.296875
-18.61,1644481522.3125
-19.92,1644481522.328125
-20.77,1644481522.34375
-20.86,1644481522.359375
-19.95,1644481522.375
-18.03,1644481522.390625
-15.31,1644481522.40625
-12.15,1644481522.421875
-8.97,1644481522.4375
-6.11,1644481522.453125
-3.81,1644481522.46875
-2.08,1644481522.484375
-0.79,1644481522.5
0.34,1644481522.515625
1.6,1644481522.53125
3.17,1644481522.546875
5.04,1644481522.5625
7.04,1644481522.578125
8.92,1644481522.59375
10.45,1644481522.609375
11.53,1644481522.625
12.14,1644481522.640625
12.33,1644481522.65625
12.16,1644481522.671875
11.74,1644481522.6875
11.2,1644481522.703125
10.72,1644481522.71875
10.51,1644481522.734375
10.69,1644481522.75
11.24,1644481522.765625
12.03,1644481522.78125
12.8,1644481522.796875
13.35,1644481522.8125
13.5,1644481522.828125
13.26,1644481522.84375
12.71,1644481522.859375
12.0,1644481522.875
11.28,1644481522.890625
10.65,1644481522.90625
10.13,1644481522.921875
9.68,1644481522.9375
9.17,1644481522.953125
8.53,1644481522.96875
7.72,1644481522.984375
6.81,1644481523.0
5.95,1644481523.015625
5.27,1644481523.03125
4.77,1644481523.046875
4.37,1644481523.0625
3.92,1644481523.078125
3.29,1644481523.09375
2.46,1644481523.109375
1.48,1644481523.125
0.45,1644481523.140625
-0.63,1644481523.15625
-1.79,1644481523.171875
-3.16,1644481523.1875
-4.82,1644481523.203125
-6.71,1644481523.21875
-8.6,1644481523.234375
-10.25,1644481523.25
-11.46,1644481523.265625
-12.17,1644481523.28125
-12.58,1644481523.296875
-12.93,1644481523.3125
-13.52,1644481523.328125
-14.52,1644481523.34375
-16.01,1644481523.359375
-17.89,1644481523.375
-19.97,1644481523.390625
-21.96,1644481523.40625
-23.52,1644481523.421875
-24.3,1644481523.4375
-24.06,1644481523.453125
-22.73,1644481523.46875
-20.42,1644481523.484375
-17.43,1644481523.5
-14.1,1644481523.515625
-10.72,1644481523.53125
-7.5,1644481523.546875
-4.55,1644481523.5625
-2.0,1644481523.578125
0.02,1644481523.59375
1.46,1644481523.609375
2.42,1644481523.625
3.1,1644481523.640625
3.8,1644481523.65625
4.78,1644481523.671875
6.12,1644481523.6875
7.74,1644481523.703125
9.41,1644481523.71875
10.9,1644481523.734375
12.03,1644481523.75
12.75,1644481523.765625
13.09,1644481523.78125
13.15,1644481523.796875
13.07,1644481523.8125
12.99,1644481523.828125
13.04,1644481523.84375
13.29,1644481523.859375
13.69,1644481523.875
14.14,1644481523.890625
14.48,1644481523.90625
14.59,1644481523.921875
14.47,1644481523.9375
14.16,1644481523.953125
13.74,1644481523.96875
13.26,1644481523.984375
12.65,1644481524.0
11.78,1644481524.015625
10.56,1644481524.03125
8.99,1644481524.046875
7.22,1644481524.0625
5.49,1644481524.078125
4.05,1644481524.09375
2.98,1644481524.109375
2.26,1644481524.125
1.7,1644481524.140625
1.17,1644481524.15625
0.52,1644481524.171875
-0.31,1644481524.1875
-1.32,1644481524.203125
-2.49,1644481524.21875
-3.79,1644481524.234375
-5.16,1644481524.25
-6.52,1644481524.265625
-7.81,1644481524.28125
-8.97,1644481524.296875
-10.01,1644481524.3125
-10.94,1644481524.328125
-11.83,1644481524.34375
-12.77,1644481524.359375
-13.84,1644481524.375
-15.15,1644481524.390625
-16.7,1644481524.40625
-18.38,1644481524.421875
-19.88,1644481524.4375
-20.81,1644481524.453125
-20.8,1644481524.46875
-19.68,1644481524.484375
-17.54,1644481524.5
-14.68,1644481524.515625
-11.54,1644481524.53125
-8.5,1644481524.546875
-5.84,1644481524.5625
-3.71,1644481524.578125
-2.14,1644481524.59375
-1.09,1644481524.609375
-0.44,1644481524.625
-0.05,1644481524.640625
0.24,1644481524.65625
0.54,1644481524.671875
0.93,1644481524.6875
1.42,1644481524.703125
2.05,1644481524.71875
2.79,1644481524.734375
3.65,1644481524.75
4.55,1644481524.765625
5.39,1644481524.78125
6.09,1644481524.796875
6.56,1644481524.8125
6.82,1644481524.828125
6.97,1644481524.84375
7.11,1644481524.859375
7.31,1644481524.875
7.53,1644481524.890625
7.69,1644481524.90625
7.68,1644481524.921875
7.49,1644481524.9375
7.11,1644481524.953125
6.54,1644481524.96875
5.77,1644481524.984375
4.78,1644481525.0
3.56,1644481525.015625
2.2,1644481525.03125
0.83,1644481525.046875
-0.39,1644481525.0625
-1.33,1644481525.078125
-2.0,1644481525.09375
-2.48,1644481525.109375
-2.92,1644481525.125
-3.42,1644481525.140625
-3.99,1644481525.15625
-4.62,1644481525.171875
-5.3,1644481525.1875
-6.05,1644481525.203125
-7.02,1644481525.21875
-8.34,1644481525.234375
-10.09,1644481525.25
-12.25,1644481525.265625
-14.68,1644481525.28125
-17.13,1644481525.296875
-19.41,1644481525.3125
-21.3,1644481525.328125
-22.64,1644481525.34375
-23.28,1644481525.359375
-23.05,1644481525.375
-21.88,1644481525.390625
-19.82,1644481525.40625
-17.12,1644481525.421875
-14.14,1644481525.4375
-11.23,1644481525.453125
-8.64,1644481525.46875
-6.41,1644481525.484375
-4.46,1644481525.5
-2.64,1644481525.515625
-0.89,1644481525.53125
0.77,1644481525.546875
2.24,1644481525.5625
3.49,1644481525.578125
4.54,1644481525.59375
5.47,1644481525.609375
6.37,1644481525.625
7.25,1644481525.640625
8.06,1644481525.65625
8.75,1644481525.671875
9.27,1644481525.6875
9.66,1644481525.703125
9.96,1644481525.71875
10.23,1644481525.734375
10.49,1644481525.75
10.73,1644481525.765625
10.92,1644481525.78125
11.0,1644481525.796875
10.89,1644481525.8125
10.52,1644481525.828125
9.89,1644481525.84375
9.06,1644481525.859375
8.18,1644481525.875
7.45,1644481525.890625
6.97,1644481525.90625
6.72,1644481525.921875
6.56,1644481525.9375
6.29,1644481525.953125
5.79,1644481525.96875
5.04,1644481525.984375
4.11,1644481526.0
3.06,1644481526.015625
1.91,1644481526.03125
0.59,1644481526.046875
-0.97,1644481526.0625
-2.75,1644481526.078125
-4.65,1644481526.09375
-6.47,1644481526.109375
-8.07,1644481526.125
-9.35,1644481526.140625
-10.34,1644481526.15625
-11.16,1644481526.171875
-11.98,1644481526.1875
-13.01,1644481526.203125
-14.43,1644481526.21875
-16.35,1644481526.234375
-18.75,1644481526.25
-21.41,1644481526.265625
-23.93,1644481526.28125
-25.85,1644481526.296875
-26.78,1644481526.3125
-26.52,1644481526.328125
-25.09,1644481526.34375
-22.69,1644481526.359375
-19.63,1644481526.375
-16.23,1644481526.390625
-12.83,1644481526.40625
-9.71,1644481526.421875
-7.07,1644481526.4375
-4.93,1644481526.453125
-3.1,1644481526.46875
-1.32,1644481526.484375
0.7,1644481526.5
3.04,1644481526.515625
5.62,1644481526.53125
8.15,1644481526.546875
10.35,1644481526.5625
12.04,1644481526.578125
13.16,1644481526.59375
13.79,1644481526.609375
14.03,1644481526.625
14.03,1644481526.640625
13.89,1644481526.65625
13.7,1644481526.671875
13.56,1644481526.6875
13.56,1644481526.703125
13.72,1644481526.71875
14.02,1644481526.734375
14.37,1644481526.75
14.64,1644481526.765625
14.76,1644481526.78125
14.67,1644481526.796875
14.35,1644481526.8125
13.8,1644481526.828125
13.0,1644481526.84375
12.0,1644481526.859375
10.88,1644481526.875
9.75,1644481526.890625
8.74,1644481526.90625
7.91,1644481526.921875
7.2,1644481526.9375
6.51,1644481526.953125
5.73,1644481526.96875
4.81,1644481526.984375
3.8,1644481527.0
2.83,1644481527.015625
2.01,1644481527.03125
1.37,1644481527.046875
0.84,1644481527.0625
0.29,1644481527.078125
-0.44,1644481527.09375
-1.38,1644481527.109375
-2.52,1644481527.125
-3.83,1644481527.140625
-5.27,1644481527.15625
-6.83,1644481527.171875
-8.57,1644481527.1875
-10.52,1644481527.203125
-12.74,1644481527.21875
-15.21,1644481527.234375
-17.88,1644481527.25
-20.66,1644481527.265625
-23.38,1644481527.28125
-25.77,1644481527.296875
-27.52,1644481527.3125
-28.25,1644481527.328125
-27.73,1644481527.34375
-25.89,1644481527.359375
-22.9,1644481527.375
-19.07,1644481527.390625
-14.89,1644481527.40625
-10.84,1644481527.421875
-7.29,1644481527.4375
-4.46,1644481527.453125
-2.29,1644481527.46875
-0.52,1644481527.484375
1.14,1644481527.5
2.95,1644481527.515625
5.04,1644481527.53125
7.3,1644481527.546875
9.57,1644481527.5625
11.68,1644481527.578125
13.51,1644481527.59375
15.03,1644481527.609375
16.26,1644481527.625
17.18,1644481527.640625
17.73,1644481527.65625
17.85,1644481527.671875
17.56,1644481527.6875
17.01,1644481527.703125
16.39,1644481527.71875
15.91,1644481527.734375
15.67,1644481527.75
15.6,1644481527.765625
15.51,1644481527.78125
15.18,1644481527.796875
14.48,1644481527.8125
13.44,1644481527.828125
12.27,1644481527.84375
11.21,1644481527.859375
10.39,1644481527.875
9.86,1644481527.890625
9.46,1644481527.90625
9.01,1644481527.921875
8.41,1644481527.9375
7.67,1644481527.953125
6.91,1644481527.96875
6.28,1644481527.984375
5.81,1644481528.0
5.4,1644481528.015625
4.87,1644481528.03125
4.02,1644481528.046875
2.76,1644481528.0625
1.15,1644481528.078125
-0.71,1644481528.09375
-2.67,1644481528.109375
-4.6,1644481528.125
-6.49,1644481528.140625
-8.32,1644481528.15625
-10.1,1644481528.171875
-11.87,1644481528.1875
-13.59,1644481528.203125
-15.29,1644481528.21875
-16.93,1644481528.234375
-18.48,1644481528.25
-19.81,1644481528.265625
-20.73,1644481528.28125
-20.99,1644481528.296875
-20.31,1644481528.3125
-18.59,1644481528.328125
-15.87,1644481528.34375
-12.42,1644481528.359375
-8.65,1644481528.375
-5.01,1644481528.390625
-1.85,1644481528.40625
0.62,1644481528.421875
2.35,1644481528.4375
3.49,1644481528.453125
4.22,1644481528.46875
4.77,1644481528.484375
5.33,1644481528.5
6.0,1644481528.515625
6.82,1644481528.53125
7.75,1644481528.546875
8.74,1644481528.5625
9.7,1644481528.578125
10.58,1644481528.59375
11.33,1644481528.609375
11.95,1644481528.625
12.45,1644481528.640625
12.83,1644481528.65625
13.08,1644481528.671875
13.24,1644481528.6875
13.35,1644481528.703125
13.43,1644481528.71875
13.49,1644481528.734375
13.44,1644481528.75
13.14,1644481528.765625
12.47,1644481528.78125
11.38,1644481528.796875
9.93,1644481528.8125
8.3,1644481528.828125
6.73,1644481528.84375
5.36,1644481528.859375
4.26,1644481528.875
3.33,1644481528.890625
2.46,1644481528.90625
1.54,1644481528.921875
0.49,1644481528.9375
-0.72,1644481528.953125
-2.08,1644481528.96875
-3.5,1644481528.984375
-4.91,1644481529.0
-6.19,1644481529.015625
-7.29,1644481529.03125
-8.21,1644481529.046875
-9.04,1644481529.0625
-9.95,1644481529.078125
-11.09,1644481529.09375
-12.58,1644481529.109375
-14.41,1644481529.125
-16.5,1644481529.140625
-18.66,1644481529.15625
-20.69,1644481529.171875
-22.28,1644481529.1875
-23.11,1644481529.203125
-22.92,1644481529.21875
-21.59,1644481529.234375
-19.19,1644481529.25
-15.98,1644481529.265625
-12.36,1644481529.28125
-8.67,1644481529.296875
-5.19,1644481529.3125
-2.04,1644481529.328125
0.74,1644481529.34375
3.14,1644481529.359375
5.17,1644481529.375
6.83,1644481529.390625
8.17,1644481529.40625
9.19,1644481529.421875
9.98,1644481529.4375
10.59,1644481529.453125
11.08,1644481529.46875
11.47,1644481529.484375
11.81,1644481529.5
12.12,1644481529.515625
12.41,1644481529.53125
12.63,1644481529.546875
12.75,1644481529.5625
12.76,1644481529.578125
12.69,1644481529.59375
12.68,1644481529.609375
12.83,1644481529.625
13.21,1644481529.640625
13.78,1644481529.65625
14.37,1644481529.671875
14.77,1644481529.6875
14.81,1644481529.703125
14.5,1644481529.71875
13.92,1644481529.734375
13.21,1644481529.75
12.49,1644481529.765625
11.75,1644481529.78125
10.91,1644481529.796875
9.87,1644481529.8125
8.58,1644481529.828125
7.1,1644481529.84375
5.62,1644481529.859375
4.24,1644481529.875
2.98,1644481529.890625
1.72,1644481529.90625
0.29,1644481529.921875
-1.45,1644481529.9375
-3.52,1644481529.953125
-5.83,1644481529.96875
-8.24,1644481529.984375
-10.57,1644481530.0
-12.72,1644481530.015625
-14.61,1644481530.03125
-16.26,1644481530.046875
-17.72,1644481530.0625
-19.19,1644481530.078125
-20.8,1644481530.09375
-22.71,1644481530.109375
-24.9,1644481530.125
-27.15,1644481530.140625
-29.05,1644481530.15625
-30.06,1644481530.171875
-29.79,1644481530.1875
-28.08,1644481530.203125
-25.07,1644481530.21875
-21.15,1644481530.234375
-16.77,1644481530.25
-12.42,1644481530.265625
-8.4,1644481530.28125
-4.92,1644481530.296875
-2.04,1644481530.3125
0.28,1644481530.328125
2.16,1644481530.34375
3.78,1644481530.359375
5.34,1644481530.375
6.96,1644481530.390625
8.7,1644481530.40625
10.52,1644481530.421875
12.3,1644481530.4375
13.91,1644481530.453125
15.24,1644481530.46875
16.25,1644481530.484375
16.94,1644481530.5
17.37,1644481530.515625
17.62,1644481530.53125
17.83,1644481530.546875
18.11,1644481530.5625
18.56,1644481530.578125
19.2,1644481530.59375
19.91,1644481530.609375
20.52,1644481530.625
20.82,1644481530.640625
20.64,1644481530.65625
19.95,1644481530.671875
18.85,1644481530.6875
17.58,1644481530.703125
16.37,1644481530.71875
15.44,1644481530.734375
14.91,1644481530.75
14.71,1644481530.765625
14.68,1644481530.78125
14.62,1644481530.796875
14.34,1644481530.8125
13.78,1644481530.828125
12.93,1644481530.84375
11.83,1644481530.859375
10.52,1644481530.875
9.0,1644481530.890625
7.28,1644481530.90625
5.4,1644481530.921875
3.51,1644481530.9375
1.73,1644481530.953125
0.18,1644481530.96875
-1.17,1644481530.984375
-2.43,1644481531.0
-3.7,1644481531.015625
-5.06,1644481531.03125
-6.48,1644481531.046875
-7.85,1644481531.0625
-9.13,1644481531.078125
-10.29,1644481531.09375
-11.4,1644481531.109375
-12.58,1644481531.125
-13.98,1644481531.140625
-15.69,1644481531.15625
-17.83,1644481531.171875
-20.38,1644481531.1875
-23.24,1644481531.203125
-26.13,1644481531.21875
-28.63,1644481531.234375
-30.23,1644481531.25
-30.5,1644481531.265625
-29.29,1644481531.28125
-26.69,1644481531.296875
-23.12,1644481531.3125
-19.05,1644481531.328125
-14.95,1644481531.34375
-11.11,1644481531.359375
-7.65,1644481531.375
-4.58,1644481531.390625
-1.82,1644481531.40625
0.75,1644481531.421875
3.21,1644481531.4375
5.65,1644481531.453125
8.1,1644481531.46875
10.5,1644481531.484375
12.71,1644481531.5
14.57,1644481531.515625
15.94,1644481531.53125
16.78,1644481531.546875
17.18,1644481531.5625
17.35,1644481531.578125
17.45,1644481531.59375
17.61,1644481531.609375
17.85,1644481531.625
18.11,1644481531.640625
18.33,1644481531.65625
18.46,1644481531.671875
18.52,1644481531.6875
18.51,1644481531.703125
18.45,1644481531.71875
18.32,1644481531.734375
18.07,1644481531.75
17.65,1644481531.765625
17.05,1644481531.78125
16.3,1644481531.796875
15.45,1644481531.8125
14.53,1644481531.828125
13.56,1644481531.84375
12.54,1644481531.859375
11.43,1644481531.875
10.16,1644481531.890625
8.7,1644481531.90625
7.05,1644481531.921875
5.32,1644481531.9375
3.65,1644481531.953125
2.24,1644481531.96875
1.19,1644481531.984375
0.53,1644481532.0
0.1,1644481532.015625
-0.29,1644481532.03125
-0.87,1644481532.046875
-1.76,1644481532.0625
-2.95,1644481532.078125
-4.38,1644481532.09375
-5.92,1644481532.109375
-7.51,1644481532.125
-9.13,1644481532.140625
-10.79,1644481532.15625
-12.5,1644481532.171875
-14.25,1644481532.1875
-16.06,1644481532.203125
-17.93,1644481532.21875
-19.87,1644481532.234375
-21.88,1644481532.25
-23.83,1644481532.265625
-25.45,1644481532.28125
-26.41,1644481532.296875
-26.36,1644481532.3125
-25.08,1644481532.328125
-22.58,1644481532.34375
-19.11,1644481532.359375
-15.09,1644481532.375
-11.02,1644481532.390625
-7.3,1644481532.40625
-4.21,1644481532.421875
-1.81,1644481532.4375
-0.05,1644481532.453125
1.19,1644481532.46875
2.06,1644481532.484375
2.72,1644481532.5
3.33,1644481532.515625
4.02,1644481532.53125
4.9,1644481532.546875
5.98,1644481532.5625
7.18,1644481532.578125
8.35,1644481532.59375
9.37,1644481532.609375
10.17,1644481532.625
10.79,1644481532.640625
11.33,1644481532.65625
11.87,1644481532.671875
12.5,1644481532.6875
13.19,1644481532.703125
13.87,1644481532.71875
14.42,1644481532.734375
14.74,1644481532.75
14.71,1644481532.765625
14.25,1644481532.78125
13.4,1644481532.796875
12.25,1644481532.8125
10.97,1644481532.828125
9.74,1644481532.84375
8.67,1644481532.859375
7.73,1644481532.875
6.87,1644481532.890625
5.95,1644481532.90625
4.9,1644481532.921875
3.75,1644481532.9375
2.62,1644481532.953125
1.66,1644481532.96875
0.98,1644481532.984375
0.53,1644481533.0
0.17,1644481533.015625
-0.26,1644481533.03125
-0.94,1644481533.046875
-1.89,1644481533.0625
-3.09,1644481533.078125
-4.44,1644481533.09375
-5.88,1644481533.109375
-7.38,1644481533.125
-8.98,1644481533.140625
-10.74,1644481533.15625
-12.74,1644481533.171875
-15.02,1644481533.1875
-17.57,1644481533.203125
-20.26,1644481533.21875
-22.85,1644481533.234375
-24.89,1644481533.25
-25.94,1644481533.265625
-25.6,1644481533.28125
-23.76,1644481533.296875
-20.57,1644481533.3125
-16.52,1644481533.328125
-12.23,1644481533.34375
-8.31,1644481533.359375
-5.16,1644481533.375
-2.89,1644481533.390625
-1.38,1644481533.40625
-0.34,1644481533.421875
0.54,1644481533.4375
1.49,1644481533.453125
2.59,1644481533.46875
3.8,1644481533.484375
4.97,1644481533.5
6.01,1644481533.515625
6.85,1644481533.53125
7.52,1644481533.546875
8.07,1644481533.5625
8.53,1644481533.578125
8.94,1644481533.59375
9.32,1644481533.609375
9.71,1644481533.625
10.16,1644481533.640625
10.72,1644481533.65625
11.38,1644481533.671875
12.09,1644481533.6875
12.73,1644481533.703125
13.15,1644481533.71875
13.19,1644481533.734375
12.75,1644481533.75
11.83,1644481533.765625
10.48,1644481533.78125
8.77,1644481533.796875
6.86,1644481533.8125
4.87,1644481533.828125
2.96,1644481533.84375
1.27,1644481533.859375
-0.13,1644481533.875
-1.24,1644481533.890625
-2.14,1644481533.90625
-2.97,1644481533.921875
-3.88,1644481533.9375
-4.98,1644481533.953125
-6.32,1644481533.96875
-7.81,1644481533.984375
-9.33,1644481534.0
-10.74,1644481534.015625
-11.96,1644481534.03125
-13.0,1644481534.046875
-13.96,1644481534.0625
-14.99,1644481534.078125
-16.26,1644481534.09375
-17.91,1644481534.109375
-19.94,1644481534.125
-22.18,1644481534.140625
-24.26,1644481534.15625
-25.68,1644481534.171875
-25.95,1644481534.1875
-24.78,1644481534.203125
-22.19,1644481534.21875
-18.51,1644481534.234375
-14.35,1644481534.25
-10.28,1644481534.265625
-6.73,1644481534.28125
-3.86,1644481534.296875
-1.6,1644481534.3125
0.21,1644481534.328125
1.72,1644481534.34375
3.06,1644481534.359375
4.35,1644481534.375
5.68,1644481534.390625
7.12,1644481534.40625
8.74,1644481534.421875
10.51,1644481534.4375
12.3,1644481534.453125
13.92,1644481534.46875
15.16,1644481534.484375
15.85,1644481534.5
15.97,1644481534.515625
15.61,1644481534.53125
14.95,1644481534.546875
14.27,1644481534.5625
13.78,1644481534.578125
13.64,1644481534.59375
13.83,1644481534.609375
14.19,1644481534.625
14.45,1644481534.640625
14.39,1644481534.65625
13.86,1644481534.671875
12.96,1644481534.6875
11.85,1644481534.703125
10.73,1644481534.71875
9.71,1644481534.734375
8.8,1644481534.75
7.91,1644481534.765625
6.98,1644481534.78125
5.99,1644481534.796875
4.98,1644481534.8125
4.02,1644481534.828125
3.18,1644481534.84375
2.42,1644481534.859375
1.61,1644481534.875
0.63,1644481534.890625
-0.62,1644481534.90625
-2.23,1644481534.921875
-4.18,1644481534.9375
-6.4,1644481534.953125
-8.76,1644481534.96875
-11.1,1644481534.984375
-13.26,1644481535.0
-15.17,1644481535.015625
-16.87,1644481535.03125
-18.44,1644481535.046875
-20.0,1644481535.0625
-21.58,1644481535.078125
-23.11,1644481535.09375
-24.44,1644481535.109375
-25.36,1644481535.125
-25.7,1644481535.140625
-25.35,1644481535.15625
-24.26,1644481535.171875
-22.42,1644481535.1875
-19.88,1644481535.203125
-16.76,1644481535.21875
-13.27,1644481535.234375
-9.7,1644481535.25
-6.37,1644481535.265625
-3.51,1644481535.28125
-1.21,1644481535.296875
0.6,1644481535.3125
2.12,1644481535.328125
3.52,1644481535.34375
4.96,1644481535.359375
6.45,1644481535.375
7.94,1644481535.390625
9.38,1644481535.40625
10.72,1644481535.421875
11.92,1644481535.4375
12.99,1644481535.453125
13.92,1644481535.46875
14.67,1644481535.484375
15.25,1644481535.5
15.65,1644481535.515625
15.93,1644481535.53125
16.15,1644481535.546875
16.36,1644481535.5625
16.57,1644481535.578125
16.73,1644481535.59375
16.78,1644481535.609375
16.66,1644481535.625
16.32,1644481535.640625
15.79,1644481535.65625
15.11,1644481535.671875
14.37,1644481535.6875
13.62,1644481535.703125
12.85,1644481535.71875
11.99,1644481535.734375
10.98,1644481535.75
9.84,1644481535.765625
8.63,1644481535.78125
7.48,1644481535.796875
6.45,1644481535.8125
5.56,1644481535.828125
4.73,1644481535.84375
3.86,1644481535.859375
2.85,1644481535.875
1.65,1644481535.890625
0.28,1644481535.90625
-1.26,1644481535.921875
-2.94,1644481535.9375
-4.71,1644481535.953125
-6.52,1644481535.96875
-8.27,1644481535.984375
-9.86,1644481536.0
-11.25,1644481536.015625
-12.46,1644481536.03125
-13.61,1644481536.046875
-14.84,1644481536.0625
-16.3,1644481536.078125
-18.07,1644481536.09375
-20.14,1644481536.109375
-22.32,1644481536.125
-24.34,1644481536.140625
-25.84,1644481536.15625
-26.45,1644481536.171875
-25.93,1644481536.1875
-24.2,1644481536.203125
-21.41,1644481536.21875
-17.92,1644481536.234375
-14.18,1644481536.25
-10.63,1644481536.265625
-7.55,1644481536.28125
-5.07,1644481536.296875
-3.1,1644481536.3125
-1.46,1644481536.328125
-0.0,1644481536.34375
1.41,1644481536.359375
2.84,1644481536.375
4.28,1644481536.390625
5.77,1644481536.40625
7.32,1644481536.421875
8.91,1644481536.4375
10.52,1644481536.453125
12.08,1644481536.46875
13.49,1644481536.484375
14.73,1644481536.5
15.75,1644481536.515625
16.55,1644481536.53125
17.08,1644481536.546875
17.26,1644481536.5625
17.11,1644481536.578125
16.69,1644481536.59375
16.14,1644481536.609375
15.58,1644481536.625
15.09,1644481536.640625
14.62,1644481536.65625
14.09,1644481536.671875
13.39,1644481536.6875
12.52,1644481536.703125
11.52,1644481536.71875
10.48,1644481536.734375
9.48,1644481536.75
8.5,1644481536.765625
7.52,1644481536.78125
6.51,1644481536.796875
5.51,1644481536.8125
4.6,1644481536.828125
3.85,1644481536.84375
3.27,1644481536.859375
2.81,1644481536.875
2.29,1644481536.890625
1.57,1644481536.90625
0.55,1644481536.921875
-0.79,1644481536.9375
-2.35,1644481536.953125
-3.97,1644481536.96875
-5.52,1644481536.984375
-6.94,1644481537.0
-8.24,1644481537.015625
-9.51,1644481537.03125
-10.87,1644481537.046875
-12.4,1644481537.0625
-14.18,1644481537.078125
-16.2,1644481537.09375
-18.35,1644481537.109375
-20.42,1644481537.125
-22.04,1644481537.140625
-22.75,1644481537.15625
-22.2,1644481537.171875
-20.2,1644481537.1875
-16.9,1644481537.203125
-12.76,1644481537.21875
-8.4,1644481537.234375
-4.45,1644481537.25
-1.31,1644481537.265625
0.95,1644481537.28125
2.48,1644481537.296875
3.61,1644481537.3125
4.59,1644481537.328125
5.53,1644481537.34375
6.36,1644481537.359375
7.0,1644481537.375
7.38,1644481537.390625
7.59,1644481537.40625
7.82,1644481537.421875
8.27,1644481537.4375
8.99,1644481537.453125
9.9,1644481537.46875
10.76,1644481537.484375
11.31,1644481537.5
11.46,1644481537.515625
11.28,1644481537.53125
10.96,1644481537.546875
10.7,1644481537.5625
10.57,1644481537.578125
10.51,1644481537.59375
10.36,1644481537.609375
10.01,1644481537.625
9.39,1644481537.640625
8.59,1644481537.65625
7.7,1644481537.671875
6.76,1644481537.6875
5.79,1644481537.703125
4.8,1644481537.71875
3.78,1644481537.734375
2.77,1644481537.75
1.74,1644481537.765625
0.6,1644481537.78125
-0.72,1644481537.796875
-2.27,1644481537.8125
-3.93,1644481537.828125
-5.56,1644481537.84375
-7.02,1644481537.859375
-8.27,1644481537.875
-9.43,1644481537.890625
-10.67,1644481537.90625
-12.15,1644481537.921875
-13.89,1644481537.9375
-15.82,1644481537.953125
-17.81,1644481537.96875
-19.69,1644481537.984375
-21.27,1644481538.0
-22.25,1644481538.015625
-22.35,1644481538.03125
-21.32,1644481538.046875
-19.11,1644481538.0625
-15.95,1644481538.078125
-12.32,1644481538.09375
-8.74,1644481538.109375
-5.61,1644481538.125
-3.09,1644481538.140625
-1.04,1644481538.15625
0.77,1644481538.171875
2.5,1644481538.1875
4.2,1644481538.203125
5.8,1644481538.21875
7.19,1644481538.234375
8.38,1644481538.25
9.51,1644481538.265625
10.71,1644481538.28125
12.06,1644481538.296875
13.38,1644481538.3125
14.43,1644481538.328125
14.96,1644481538.34375
14.85,1644481538.359375
14.29,1644481538.375
13.56,1644481538.390625
13.01,1644481538.40625
12.78,1644481538.421875
12.86,1644481538.4375
13.04,1644481538.453125
13.11,1644481538.46875
12.91,1644481538.484375
12.36,1644481538.5
11.52,1644481538.515625
10.42,1644481538.53125
9.1,1644481538.546875
7.58,1644481538.5625
5.92,1644481538.578125
4.22,1644481538.59375
2.62,1644481538.609375
1.29,1644481538.625
0.3,1644481538.640625
-0.38,1644481538.65625
-0.96,1644481538.671875
-1.61,1644481538.6875
-2.53,1644481538.703125
-3.74,1644481538.71875
-5.15,1644481538.734375
-6.6,1644481538.75
-7.99,1644481538.765625
-9.26,1644481538.78125
-10.46,1644481538.796875
-11.69,1644481538.8125
-13.06,1644481538.828125
-14.68,1644481538.84375
-16.67,1644481538.859375
-19.03,1644481538.875
-21.66,1644481538.890625
-24.25,1644481538.90625
-26.34,1644481538.921875
-27.42,1644481538.9375
-27.17,1644481538.953125
-25.55,1644481538.96875
-22.78,1644481538.984375
-19.33,1644481539.0
-15.69,1644481539.015625
-12.2,1644481539.03125
-9.01,1644481539.046875
-6.16,1644481539.0625
-3.53,1644481539.078125
-1.02,1644481539.09375
1.4,1644481539.109375
3.76,1644481539.125
6.07,1644481539.140625
8.31,1644481539.15625
10.48,1644481539.171875
12.58,1644481539.1875
14.51,1644481539.203125
16.22,1644481539.21875
17.56,1644481539.234375
18.45,1644481539.25
18.82,1644481539.265625
18.75,1644481539.28125
18.38,1644481539.296875
17.89,1644481539.3125
17.43,1644481539.328125
17.05,1644481539.34375
16.67,1644481539.359375
16.18,1644481539.375
15.45,1644481539.390625
14.44,1644481539.40625
13.23,1644481539.421875
12.01,1644481539.4375
10.95,1644481539.453125
10.17,1644481539.46875
9.67,1644481539.484375
9.39,1644481539.5
9.21,1644481539.515625
9.06,1644481539.53125
8.9,1644481539.546875
8.67,1644481539.5625
8.3,1644481539.578125
7.68,1644481539.59375
6.73,1644481539.609375
5.43,1644481539.625
3.89,1644481539.640625
2.27,1644481539.65625
0.68,1644481539.671875
-0.84,1644481539.6875
-2.41,1644481539.703125
-4.12,1644481539.71875
-6.03,1644481539.734375
-8.04,1644481539.75
-10.0,1644481539.765625
-11.75,1644481539.78125
-13.27,1644481539.796875
-14.68,1644481539.8125
-16.21,1644481539.828125
-18.04,1644481539.84375
-20.19,1644481539.859375
-22.47,1644481539.875
-24.52,1644481539.890625
-25.94,1644481539.90625
-26.4,1644481539.921875
-25.76,1644481539.9375
-24.04,1644481539.953125
-21.39,1644481539.96875
-18.08,1644481539.984375
-14.41,1644481540.0
-10.73,1644481540.015625
-7.35,1644481540.03125
-4.48,1644481540.046875
-2.18,1644481540.0625
-0.31,1644481540.078125
1.35,1644481540.09375
3.08,1644481540.109375
5.05,1644481540.125
7.29,1644481540.140625
9.68,1644481540.15625
11.96,1644481540.171875
13.83,1644481540.1875
15.04,1644481540.203125
15.5,1644481540.21875
15.29,1644481540.234375
14.71,1644481540.25
14.08,1644481540.265625
13.7,1644481540.28125
13.71,1644481540.296875
14.05,1644481540.3125
14.56,1644481540.328125
15.05,1644481540.34375
15.38,1644481540.359375
15.46,1644481540.375
15.27,1644481540.390625
14.76,1644481540.40625
13.93,1644481540.421875
12.82,1644481540.4375
11.59,1644481540.453125
10.49,1644481540.46875
9.78,1644481540.484375
9.53,1644481540.5
9.61,1644481540.515625
9.72,1644481540.53125
9.49,1644481540.546875
8.7,1644481540.5625
7.35,1644481540.578125
5.62,1644481540.59375
3.78,1644481540.609375
2.03,1644481540.625
0.49,1644481540.640625
-0.84,1644481540.65625
-2.01,1644481540.671875
-3.07,1644481540.6875
-4.03,1644481540.703125
-4.94,1644481540.71875
-5.88,1644481540.734375
-6.9,1644481540.75
-8.11,1644481540.765625
-9.49,1644481540.78125
-11.0,1644481540.796875
-12.54,1644481540.8125
-14.03,1644481540.828125
-15.41,1644481540.84375
-16.59,1644481540.859375
-17.57,1644481540.875
-18.24,1644481540.890625
-18.52,1644481540.90625
-18.25,1644481540.921875
-17.33,1644481540.9375
-15.68,1644481540.953125
-13.33,1644481540.96875
-10.46,1644481540.984375
-7.32,1644481541.0
-4.24,1644481541.015625
-1.51,1644481541.03125
0.72,1644481541.046875
2.44,1644481541.0625
3.8,1644481541.078125
4.94,1644481541.09375
6.01,1644481541.109375
7.04,1644481541.125
7.97,1644481541.140625
8.73,1644481541.15625
9.28,1644481541.171875
9.65,1644481541.1875
9.9,1644481541.203125
10.09,1644481541.21875
10.17,1644481541.234375
10.13,1644481541.25
9.94,1644481541.265625
9.66,1644481541.28125
9.49,1644481541.296875
9.55,1644481541.3125
9.91,1644481541.328125
10.5,1644481541.34375
11.12,1644481541.359375
11.51,1644481541.375
11.5,1644481541.390625
11.04,1644481541.40625
10.19,1644481541.421875
9.07,1644481541.4375
7.78,1644481541.453125
6.45,1644481541.46875
5.17,1644481541.484375
4.01,1644481541.5
3.0,1644481541.515625
2.09,1644481541.53125
1.18,1644481541.546875
0.1,1644481541.5625
-1.2,1644481541.578125
-2.71,1644481541.59375
-4.3,1644481541.609375
-5.81,1644481541.625
-7.13,1644481541.640625
-8.22,1644481541.65625
-9.12,1644481541.671875
-9.87,1644481541.6875
-10.57,1644481541.703125
-11.31,1644481541.71875
-12.19,1644481541.734375
-13.3,1644481541.75
-14.63,1644481541.765625
-16.05,1644481541.78125
-17.27,1644481541.796875
-17.93,1644481541.8125
-17.74,1644481541.828125
-16.56,1644481541.84375
-14.49,1644481541.859375
-11.79,1644481541.875
-8.79,1644481541.890625
-5.8,1644481541.90625
-3.07,1644481541.921875
-0.74,1644481541.9375
1.11,1644481541.953125
2.44,1644481541.96875
3.3,1644481541.984375
3.81,1644481542.0
4.13,1644481542.015625
4.39,1644481542.03125
4.69,1644481542.046875
5.08,1644481542.0625
5.55,1644481542.078125
6.07,1644481542.09375
6.66,1644481542.109375
7.29,1644481542.125
7.98,1644481542.140625
8.65,1644481542.15625
9.22,1644481542.171875
9.62,1644481542.1875
9.85,1644481542.203125
9.99,1644481542.21875
10.16,1644481542.234375
10.41,1644481542.25
10.68,1644481542.265625
10.79,1644481542.28125
10.56,1644481542.296875
9.89,1644481542.3125
8.8,1644481542.328125
7.45,1644481542.34375
6.07,1644481542.359375
4.85,1644481542.375
3.89,1644481542.390625
3.19,1644481542.40625
2.71,1644481542.421875
2.33,1644481542.4375
1.92,1644481542.453125
1.37,1644481542.46875
0.57,1644481542.484375
-0.52,1644481542.5
-1.87,1644481542.515625
-3.37,1644481542.53125
-4.93,1644481542.546875
-6.47,1644481542.5625
-8.02,1644481542.578125
-9.62,1644481542.59375
-11.34,1644481542.609375
-13.18,1644481542.625
-15.15,1644481542.640625
-17.19,1644481542.65625
-19.27,1644481542.671875
-21.28,1644481542.6875
-23.12,1644481542.703125
-24.54,1644481542.71875
-25.3,1644481542.734375
-25.19,1644481542.75
-24.13,1644481542.765625
-22.22,1644481542.78125
-19.73,1644481542.796875
-17.01,1644481542.8125
-14.28,1644481542.828125
-11.66,1644481542.84375
-9.11,1644481542.859375
-6.55,1644481542.875
-3.92,1644481542.890625
-1.29,1644481542.90625
1.26,1644481542.921875
3.65,1644481542.9375
5.86,1644481542.953125
7.97,1644481542.96875
10.06,1644481542.984375
12.12,1644481543.0
14.0,1644481543.015625
15.45,1644481543.03125
16.24,1644481543.046875
16.31,1644481543.0625
15.79,1644481543.078125
14.95,1644481543.09375
14.13,1644481543.109375
13.56,1644481543.125
13.3,1644481543.140625
13.31,1644481543.15625
13.46,1644481543.171875
13.66,1644481543.1875
13.86,1644481543.203125
14.01,1644481543.21875
14.01,1644481543.234375
13.72,1644481543.25
13.0,1644481543.265625
11.82,1644481543.28125
10.32,1644481543.296875
8.75,1644481543.3125
7.39,1644481543.328125
6.42,1644481543.34375
5.84,1644481543.359375
5.47,1644481543.375
5.08,1644481543.390625
4.45,1644481543.40625
3.55,1644481543.421875
2.4,1644481543.4375
1.17,1644481543.453125
-0.04,1644481543.46875
-1.2,1644481543.484375
-2.33,1644481543.5
-3.47,1644481543.515625
-4.65,1644481543.53125
-5.83,1644481543.546875
-6.95,1644481543.5625
-8.01,1644481543.578125
-9.01,1644481543.59375
-10.03,1644481543.609375
-11.13,1644481543.625
-12.43,1644481543.640625
-13.99,1644481543.65625
-15.81,1644481543.671875
-17.85,1644481543.6875
-19.93,1644481543.703125
-21.78,1644481543.71875
-23.04,1644481543.734375
-23.38,1644481543.75
-22.66,1644481543.765625
-20.91,1644481543.78125
-18.39,1644481543.796875
-15.41,1644481543.8125
-12.27,1644481543.828125
-9.21,1644481543.84375
-6.36,1644481543.859375
-3.82,1644481543.875
-1.64,1644481543.890625
0.19,1644481543.90625
1.75,1644481543.921875
3.15,1644481543.9375
4.52,1644481543.953125
5.96,1644481543.96875
7.44,1644481543.984375
8.88,1644481544.0
10.14,1644481544.015625
11.13,1644481544.03125
11.82,1644481544.046875
12.28,1644481544.0625
12.58,1644481544.078125
12.79,1644481544.09375
12.99,1644481544.109375
13.25,1644481544.125
13.61,1644481544.140625
14.06,1644481544.15625
14.54,1644481544.171875
14.93,1644481544.1875
15.1,1644481544.203125
14.91,1644481544.21875
14.3,1644481544.234375
13.33,1644481544.25
12.17,1644481544.265625
11.01,1644481544.28125
10.05,1644481544.296875
9.34,1644481544.3125
8.89,1644481544.328125
8.62,1644481544.34375
8.44,1644481544.359375
8.27,1644481544.375
8.07,1644481544.390625
7.77,1644481544.40625
7.33,1644481544.421875
6.71,1644481544.4375
5.9,1644481544.453125
4.94,1644481544.46875
3.86,1644481544.484375
2.64,1644481544.5
1.26,1644481544.515625
-0.31,1644481544.53125
-2.08,1644481544.546875
-3.94,1644481544.5625
-5.74,1644481544.578125
-7.3,1644481544.59375
-8.54,1644481544.609375
-9.52,1644481544.625
-10.42,1644481544.640625
-11.44,1644481544.65625
-12.77,1644481544.671875
-14.47,1644481544.6875
-16.47,1644481544.703125
-18.54,1644481544.71875
-20.37,1644481544.734375
-21.63,1644481544.75
-22.06,1644481544.765625
-21.54,1644481544.78125
-20.13,1644481544.796875
-17.99,1644481544.8125
-15.41,1644481544.828125
-12.65,1644481544.84375
-9.91,1644481544.859375
-7.37,1644481544.875
-5.07,1644481544.890625
-3.05,1644481544.90625
-1.3,1644481544.921875
0.24,1644481544.9375
1.63,1644481544.953125
2.9,1644481544.96875
4.09,1644481544.984375
5.17,1644481545.0
6.1,1644481545.015625
6.86,1644481545.03125
7.48,1644481545.046875
7.95,1644481545.0625
8.33,1644481545.078125
8.66,1644481545.09375
8.97,1644481545.109375
9.32,1644481545.125
9.76,1644481545.140625
10.33,1644481545.15625
11.0,1644481545.171875
11.67,1644481545.1875
12.19,1644481545.203125
12.41,1644481545.21875
12.21,1644481545.234375
11.56,1644481545.25
10.57,1644481545.265625
9.38,1644481545.28125
8.21,1644481545.296875
7.2,1644481545.3125
6.42,1644481545.328125
5.84,1644481545.34375
5.44,1644481545.359375
5.15,1644481545.375
4.9,1644481545.390625
4.65,1644481545.40625
4.29,1644481545.421875
3.76,1644481545.4375
2.99,1644481545.453125
1.97,1644481545.46875
0.74,1644481545.484375
-0.61,1644481545.5
-1.97,1644481545.515625
-3.33,1644481545.53125
-4.66,1644481545.546875
-5.96,1644481545.5625
-7.26,1644481545.578125
-8.51,1644481545.59375
-9.7,1644481545.609375
-10.83,1644481545.625
-11.96,1644481545.640625
-13.14,1644481545.65625
-14.44,1644481545.671875
-15.84,1644481545.6875
-17.26,1644481545.703125
-18.51,1644481545.71875
-19.39,1644481545.734375
-19.7,1644481545.75
-19.29,1644481545.765625
-18.1,1644481545.78125
-16.17,1644481545.796875
-13.58,1644481545.8125
-10.56,1644481545.828125
-7.38,1644481545.84375
-4.3,1644481545.859375
-1.58,1644481545.875
0.6,1644481545.890625
2.21,1644481545.90625
3.29,1644481545.921875
3.99,1644481545.9375
4.5,1644481545.953125
4.97,1644481545.96875
5.5,1644481545.984375
6.12,1644481546.0
6.78,1644481546.015625
7.39,1644481546.03125
7.9,1644481546.046875
8.34,1644481546.0625
8.8,1644481546.078125
9.4,1644481546.09375
10.22,1644481546.109375
11.17,1644481546.125
12.03,1644481546.140625
12.51,1644481546.15625
12.37,1644481546.171875
11.56,1644481546.1875
10.28,1644481546.203125
8.84,1644481546.21875
7.63,1644481546.234375
6.87,1644481546.25
6.56,1644481546.265625
6.54,1644481546.28125
6.53,1644481546.296875
6.27,1644481546.3125
5.64,1644481546.328125
4.65,1644481546.34375
3.45,1644481546.359375
2.22,1644481546.375
1.12,1644481546.390625
0.2,1644481546.40625
-0.57,1644481546.421875
-1.33,1644481546.4375
-2.24,1644481546.453125
-3.44,1644481546.46875
-4.94,1644481546.484375
-6.64,1644481546.5
-8.38,1644481546.515625
-10.04,1644481546.53125
-11.54,1644481546.546875
-12.95,1644481546.5625
-14.36,1644481546.578125
-15.87,1644481546.59375
-17.48,1644481546.609375
-19.1,1644481546.625
-20.6,1644481546.640625
-21.81,1644481546.65625
-22.61,1644481546.671875
-22.93,1644481546.6875
-22.67,1644481546.703125
-21.76,1644481546.71875
-20.15,1644481546.734375
-17.84,1644481546.75
-14.95,1644481546.765625
-11.68,1644481546.78125
-8.32,1644481546.796875
-5.13,1644481546.8125
-2.36,1644481546.828125
-0.1,1644481546.84375
1.62,1644481546.859375
2.92,1644481546.875
3.95,1644481546.890625
4.9,1644481546.90625
5.92,1644481546.921875
7.13,1644481546.9375
8.53,1644481546.953125
10.04,1644481546.96875
11.53,1644481546.984375
12.8,1644481547.0
13.71,1644481547.015625
14.14,1644481547.03125
14.12,1644481547.046875
13.76,1644481547.0625
13.23,1644481547.078125
12.71,1644481547.09375
12.36,1644481547.109375
12.26,1644481547.125
12.41,1644481547.140625
12.73,1644481547.15625
13.13,1644481547.171875
13.48,1644481547.1875
13.66,1644481547.203125
13.62,1644481547.21875
13.32,1644481547.234375
12.79,1644481547.25
12.05,1644481547.265625
11.17,1644481547.28125
10.19,1644481547.296875
9.18,1644481547.3125
8.2,1644481547.328125
7.26,1644481547.34375
6.34,1644481547.359375
5.34,1644481547.375
4.22,1644481547.390625
2.97,1644481547.40625
1.6,1644481547.421875
0.16,1644481547.4375
-1.34,1644481547.453125
-2.88,1644481547.46875
-4.44,1644481547.484375
-5.95,1644481547.5
-7.32,1644481547.515625
-8.52,1644481547.53125
-9.56,1644481547.546875
-10.63,1644481547.5625
-11.9,1644481547.578125
-13.58,1644481547.59375
-15.75,1644481547.609375
-18.35,1644481547.625
-21.2,1644481547.640625
-24.01,1644481547.65625
-26.42,1644481547.671875
-28.05,1644481547.6875
-28.57,1644481547.703125
-27.78,1644481547.71875
-25.7,1644481547.734375
-22.53,1644481547.75
-18.65,1644481547.765625
-14.52,1644481547.78125
-10.54,1644481547.796875
-7.02,1644481547.8125
-4.1,1644481547.828125
-1.82,1644481547.84375
-0.04,1644481547.859375
1.43,1644481547.875
2.85,1644481547.890625
4.41,1644481547.90625
6.2,1644481547.921875
8.15,1644481547.9375
10.11,1644481547.953125
11.94,1644481547.96875
13.5,1644481547.984375
14.77,1644481548.0
15.74,1644481548.015625
16.41,1644481548.03125
16.8,1644481548.046875
16.92,1644481548.0625
16.8,1644481548.078125
16.51,1644481548.09375
16.18,1644481548.109375
15.88,1644481548.125
15.67,1644481548.140625
15.53,1644481548.15625
15.37,1644481548.171875
15.08,1644481548.1875
14.52,1644481548.203125
13.65,1644481548.21875
12.47,1644481548.234375
11.1,1644481548.25
9.69,1644481548.265625
8.39,1644481548.28125
7.28,1644481548.296875
6.32,1644481548.3125
5.38,1644481548.328125
4.31,1644481548.34375
3.06,1644481548.359375
1.69,1644481548.375
0.34,1644481548.390625
-0.86,1644481548.40625
-1.82,1644481548.421875
-2.56,1644481548.4375
-3.16,1644481548.453125
-3.71,1644481548.46875
-4.26,1644481548.484375
-4.83,1644481548.5
-5.4,1644481548.515625
-6.03,1644481548.53125
-6.76,1644481548.546875
-7.66,1644481548.5625
-8.74,1644481548.578125
-9.99,1644481548.59375
-11.35,1644481548.609375
-12.86,1644481548.625
-14.56,1644481548.640625
-16.52,1644481548.65625
-18.68,1644481548.671875
-20.83,1644481548.6875
-22.56,1644481548.703125
-23.43,1644481548.71875
-23.11,1644481548.734375
-21.49,1644481548.75
-18.78,1644481548.765625
-15.37,1644481548.78125
-11.77,1644481548.796875
-8.37,1644481548.8125
-5.4,1644481548.828125
-2.87,1644481548.84375
-0.71,1644481548.859375
1.2,1644481548.875
2.9,1644481548.890625
4.38,1644481548.90625
5.59,1644481548.921875
6.52,1644481548.9375
7.21,1644481548.953125
7.76,1644481548.96875
8.28,1644481548.984375
8.85,1644481549.0
9.47,1644481549.015625
10.11,1644481549.03125
10.64,1644481549.046875
10.99,1644481549.0625
11.19,1644481549.078125
11.32,1644481549.09375
11.47,1644481549.109375
11.7,1644481549.125
12.02,1644481549.140625
12.31,1644481549.15625
12.47,1644481549.171875
12.37,1644481549.1875
11.99,1644481549.203125
11.41,1644481549.21875
10.75,1644481549.234375
10.1,1644481549.25
9.56,1644481549.265625
9.12,1644481549.28125
8.76,1644481549.296875
8.39,1644481549.3125
7.94,1644481549.328125
7.37,1644481549.34375
6.7,1644481549.359375
5.95,1644481549.375
5.17,1644481549.390625
4.36,1644481549.40625
3.49,1644481549.421875
2.52,1644481549.4375
1.51,1644481549.453125
0.57,1644481549.46875
-0.11,1644481549.484375
-0.41,1644481549.5
-0.42,1644481549.515625
-0.43,1644481549.53125
-0.9,1644481549.546875
-2.29,1644481549.5625
-4.84,1644481549.578125
-8.46,1644481549.59375
-12.81,1644481549.609375
-17.33,1644481549.625
-21.42,1644481549.640625
-24.55,1644481549.65625
-26.35,1644481549.671875
-26.63,1644481549.6875
-25.41,1644481549.703125
-22.9,1644481549.71875
-19.43,1644481549.734375
-15.4,1644481549.75
-11.23,1644481549.765625
-7.31,1644481549.78125
-3.94,1644481549.796875
-1.39,1644481549.8125
0.26,1644481549.828125
1.05,1644481549.84375
1.21,1644481549.859375
1.11,1644481549.875
1.03,1644481549.890625
1.22,1644481549.90625
1.67,1644481549.921875
2.25,1644481549.9375
2.79,1644481549.953125
3.22,1644481549.96875
3.55,1644481549.984375
3.9,1644481550.0
4.43,1644481550.015625
5.16,1644481550.03125
6.08,1644481550.046875
7.03,1644481550.0625
7.86,1644481550.078125
8.43,1644481550.09375
8.72,1644481550.109375
8.77,1644481550.125
8.73,1644481550.140625
8.66,1644481550.15625
8.53,1644481550.171875
8.21,1644481550.1875
7.54,1644481550.203125
6.44,1644481550.21875
5.03,1644481550.234375
3.54,1644481550.25
2.18,1644481550.265625
1.07,1644481550.28125
0.16,1644481550.296875
-0.77,1644481550.3125
-1.86,1644481550.328125
-3.15,1644481550.34375
-4.54,1644481550.359375
-5.85,1644481550.375
-6.97,1644481550.390625
-7.92,1644481550.40625
-8.81,1644481550.421875
-9.77,1644481550.4375
-10.93,1644481550.453125
-12.34,1644481550.46875
-14.03,1644481550.484375
-16.0,1644481550.5
-18.16,1644481550.515625
-20.37,1644481550.53125
-22.32,1644481550.546875
-23.67,1644481550.5625
-24.05,1644481550.578125
-23.26,1644481550.59375
-21.31,1644481550.609375
-18.41,1644481550.625
-14.93,1644481550.640625
-11.31,1644481550.65625
-7.94,1644481550.671875
-5.07,1644481550.6875
-2.78,1644481550.703125
-1.03,1644481550.71875
0.34,1644481550.734375
1.51,1644481550.75
2.6,1644481550.765625
3.69,1644481550.78125
4.82,1644481550.796875
5.98,1644481550.8125
7.14,1644481550.828125
8.28,1644481550.84375
9.32,1644481550.859375
10.24,1644481550.875
11.02,1644481550.890625
11.68,1644481550.90625
12.23,1644481550.921875
12.67,1644481550.9375
12.97,1644481550.953125
13.09,1644481550.96875
13.04,1644481550.984375
12.83,1644481551.0
12.47,1644481551.015625
11.95,1644481551.03125
11.26,1644481551.046875
10.43,1644481551.0625
9.51,1644481551.078125
8.6,1644481551.09375
7.76,1644481551.109375
7.01,1644481551.125
6.34,1644481551.140625
5.71,1644481551.15625
5.13,1644481551.171875
4.68,1644481551.1875
4.42,1644481551.203125
4.38,1644481551.21875
4.47,1644481551.234375
4.52,1644481551.25
4.36,1644481551.265625
3.89,1644481551.28125
3.06,1644481551.296875
1.9,1644481551.3125
0.43,1644481551.328125
-1.33,1644481551.34375
-3.38,1644481551.359375
-5.66,1644481551.375
-8.11,1644481551.390625
-10.62,1644481551.40625
-13.12,1644481551.421875
-15.55,1644481551.4375
-17.92,1644481551.453125
-20.22,1644481551.46875
-22.41,1644481551.484375
-24.37,1644481551.5
-25.88,1644481551.515625
-26.74,1644481551.53125
-26.73,1644481551.546875
-25.73,1644481551.5625
-23.68,1644481551.578125
-20.68,1644481551.59375
-16.97,1644481551.609375
-12.97,1644481551.625
-9.15,1644481551.640625
-5.91,1644481551.65625
-3.49,1644481551.671875
-1.81,1644481551.6875
-0.61,1644481551.703125
0.5,1644481551.71875
1.81,1644481551.734375
3.39,1644481551.75
5.1,1644481551.765625
6.67,1644481551.78125
7.95,1644481551.796875
8.85,1644481551.8125
9.53,1644481551.828125
10.12,1644481551.84375
10.75,1644481551.859375
11.4,1644481551.875
11.99,1644481551.890625
12.44,1644481551.90625
12.76,1644481551.921875
13.07,1644481551.9375
13.49,1644481551.953125
14.05,1644481551.96875
14.67,1644481551.984375
15.13,1644481552.0
