bvp,time
96.42,1721467270.8125
98.59,1721467270.828125
97.38,1721467270.84375
93.72,1721467270.859375
88.71,1721467270.875
83.38,1721467270.890625
78.43,1721467270.90625
74.14,1721467270.921875
70.45,1721467270.9375
67.17,1721467270.953125
64.17,1721467270.96875
61.52,1721467270.984375
59.38,1721467271.0
57.86,1721467271.015625
56.83,1721467271.03125
55.91,1721467271.046875
54.56,1721467271.0625
52.23,1721467271.078125
48.64,1721467271.09375
43.8,1721467271.109375
37.97,1721467271.125
31.5,1721467271.140625
24.63,1721467271.15625
17.45,1721467271.171875
9.85,1721467271.1875
1.73,1721467271.203125
-6.94,1721467271.21875
-15.98,1721467271.234375
-25.05,1721467271.25
-33.76,1721467271.265625
-41.78,1721467271.28125
-49.03,1721467271.296875
-55.67,1721467271.3125
-62.14,1721467271.328125
-69.07,1721467271.34375
-77.14,1721467271.359375
-86.82,1721467271.375
-98.01,1721467271.390625
-109.74,1721467271.40625
-120.21,1721467271.421875
-127.08,1721467271.4375
-128.13,1721467271.453125
-121.95,1721467271.46875
-108.37,1721467271.484375
-88.45,1721467271.5
-64.15,1721467271.515625
-37.69,1721467271.53125
-11.1,1721467271.546875
14.03,1721467271.5625
36.53,1721467271.578125
55.54,1721467271.59375
70.39,1721467271.609375
80.73,1721467271.625
86.61,1721467271.640625
88.57,1721467271.65625
87.56,1721467271.671875
84.76,1721467271.6875
81.27,1721467271.703125
77.9,1721467271.71875
75.06,1721467271.734375
72.81,1721467271.75
71.03,1721467271.765625
69.64,1721467271.78125
68.74,1721467271.796875
68.66,1721467271.8125
69.82,1721467271.828125
72.56,1721467271.84375
77.03,1721467271.859375
83.09,1721467271.875
90.43,1721467271.890625
98.69,1721467271.90625
107.44,1721467271.921875
116.29,1721467271.9375
124.77,1721467271.953125
132.38,1721467271.96875
138.71,1721467271.984375
143.53,1721467272.0
146.91,1721467272.015625
149.05,1721467272.03125
150.09,1721467272.046875
149.81,1721467272.0625
147.54,1721467272.078125
142.36,1721467272.09375
133.33,1721467272.109375
119.9,1721467272.125
101.95,1721467272.140625
79.55,1721467272.15625
52.61,1721467272.171875
20.75,1721467272.1875
-16.47,1721467272.203125
-58.99,1721467272.21875
-105.77,1721467272.234375
-154.59,1721467272.25
-202.48,1721467272.265625
-246.38,1721467272.28125
-283.73,1721467272.296875
-312.74,1721467272.3125
-332.33,1721467272.328125
-341.96,1721467272.34375
-341.58,1721467272.359375
-331.82,1721467272.375
-314.15,1721467272.390625
-290.84,1721467272.40625
-264.66,1721467272.421875
-238.2,1721467272.4375
-213.4,1721467272.453125
-191.27,1721467272.46875
-172.02,1721467272.484375
-155.37,1721467272.5
-140.89,1721467272.515625
-128.14,1721467272.53125
-116.68,1721467272.546875
-106.08,1721467272.5625
-95.9,1721467272.578125
-85.76,1721467272.59375
-75.35,1721467272.609375
-64.56,1721467272.625
-53.44,1721467272.640625
-42.2,1721467272.65625
-31.24,1721467272.671875
-20.98,1721467272.6875
-11.77,1721467272.703125
-3.81,1721467272.71875
2.92,1721467272.734375
8.6,1721467272.75
13.46,1721467272.765625
17.64,1721467272.78125
21.12,1721467272.796875
23.71,1721467272.8125
25.16,1721467272.828125
25.29,1721467272.84375
24.11,1721467272.859375
21.85,1721467272.875
18.95,1721467272.890625
15.83,1721467272.90625
12.88,1721467272.921875
10.3,1721467272.9375
8.07,1721467272.953125
5.98,1721467272.96875
3.68,1721467272.984375
0.63,1721467273.0
-3.68,1721467273.015625
-9.61,1721467273.03125
-16.98,1721467273.046875
-24.83,1721467273.0625
-31.39,1721467273.078125
-34.4,1721467273.09375
-31.75,1721467273.109375
-22.21,1721467273.125
-5.84,1721467273.140625
15.95,1721467273.15625
40.94,1721467273.171875
66.67,1721467273.1875
91.05,1721467273.203125
112.56,1721467273.21875
130.23,1721467273.234375
143.47,1721467273.25
152.01,1721467273.265625
155.81,1721467273.28125
155.29,1721467273.296875
151.1,1721467273.3125
144.08,1721467273.328125
134.99,1721467273.34375
124.28,1721467273.359375
112.2,1721467273.375
98.89,1721467273.390625
84.72,1721467273.40625
70.41,1721467273.421875
56.97,1721467273.4375
45.46,1721467273.453125
36.66,1721467273.46875
30.82,1721467273.484375
27.59,1721467273.5
26.14,1721467273.515625
25.5,1721467273.53125
24.81,1721467273.546875
23.54,1721467273.5625
21.52,1721467273.578125
18.93,1721467273.59375
16.09,1721467273.609375
13.39,1721467273.625
11.01,1721467273.640625
8.86,1721467273.65625
6.51,1721467273.671875
3.31,1721467273.6875
-1.38,1721467273.703125
-7.92,1721467273.71875
-16.19,1721467273.734375
-25.58,1721467273.75
-35.3,1721467273.765625
-44.62,1721467273.78125
-53.2,1721467273.796875
-61.19,1721467273.8125
-69.12,1721467273.828125
-77.69,1721467273.84375
-87.37,1721467273.859375
-98.05,1721467273.875
-108.79,1721467273.890625
-117.81,1721467273.90625
-122.82,1721467273.921875
-121.67,1721467273.9375
-113.09,1721467273.953125
-97.25,1721467273.96875
-75.79,1721467273.984375
-51.32,1721467274.0
-26.64,1721467274.015625
-3.96,1721467274.03125
15.47,1721467274.046875
31.27,1721467274.0625
43.53,1721467274.078125
52.43,1721467274.09375
58.04,1721467274.109375
60.47,1721467274.125
60.03,1721467274.140625
57.35,1721467274.15625
53.27,1721467274.171875
48.62,1721467274.1875
44.0,1721467274.203125
39.74,1721467274.21875
35.85,1721467274.234375
32.17,1721467274.25
28.55,1721467274.265625
24.88,1721467274.28125
21.27,1721467274.296875
18.04,1721467274.3125
15.57,1721467274.328125
14.2,1721467274.34375
13.92,1721467274.359375
14.36,1721467274.375
14.81,1721467274.390625
14.58,1721467274.40625
13.24,1721467274.421875
10.93,1721467274.4375
8.25,1721467274.453125
5.95,1721467274.46875
4.53,1721467274.484375
3.92,1721467274.5
3.42,1721467274.515625
2.04,1721467274.53125
-1.08,1721467274.546875
-6.35,1721467274.5625
-13.56,1721467274.578125
-22.12,1721467274.59375
-31.31,1721467274.609375
-40.45,1721467274.625
-48.88,1721467274.640625
-55.78,1721467274.65625
-60.05,1721467274.671875
-60.4,1721467274.6875
-55.78,1721467274.703125
-45.79,1721467274.71875
-31.12,1721467274.734375
-13.45,1721467274.75
5.06,1721467274.765625
22.33,1721467274.78125
36.97,1721467274.796875
48.39,1721467274.8125
56.62,1721467274.828125
61.93,1721467274.84375
64.58,1721467274.859375
64.73,1721467274.875
62.58,1721467274.890625
58.6,1721467274.90625
53.54,1721467274.921875
48.27,1721467274.9375
43.54,1721467274.953125
39.74,1721467274.96875
36.85,1721467274.984375
34.6,1721467275.0
32.72,1721467275.015625
31.1,1721467275.03125
29.75,1721467275.046875
28.67,1721467275.0625
27.63,1721467275.078125
26.17,1721467275.09375
23.7,1721467275.109375
19.83,1721467275.125
14.53,1721467275.140625
8.19,1721467275.15625
1.49,1721467275.171875
-4.94,1721467275.1875
-10.75,1721467275.203125
-15.96,1721467275.21875
-20.95,1721467275.234375
-26.32,1721467275.25
-32.7,1721467275.265625
-40.61,1721467275.28125
-50.23,1721467275.296875
-61.14,1721467275.3125
-72.17,1721467275.328125
-81.38,1721467275.34375
-86.52,1721467275.359375
-85.6,1721467275.375
-77.65,1721467275.390625
-63.18,1721467275.40625
-44.06,1721467275.421875
-23.0,1721467275.4375
-2.71,1721467275.453125
14.82,1721467275.46875
28.67,1721467275.484375
38.79,1721467275.5
45.68,1721467275.515625
49.85,1721467275.53125
51.65,1721467275.546875
51.25,1721467275.5625
48.83,1721467275.578125
44.72,1721467275.59375
39.41,1721467275.609375
33.47,1721467275.625
27.41,1721467275.640625
21.58,1721467275.65625
16.2,1721467275.671875
11.45,1721467275.6875
7.42,1721467275.703125
4.15,1721467275.71875
1.54,1721467275.734375
-0.73,1721467275.75
-3.15,1721467275.765625
-6.19,1721467275.78125
-10.18,1721467275.796875
-15.15,1721467275.8125
-20.85,1721467275.828125
-26.82,1721467275.84375
-32.55,1721467275.859375
-37.69,1721467275.875
-42.26,1721467275.890625
-46.69,1721467275.90625
-51.84,1721467275.921875
-58.71,1721467275.9375
-67.97,1721467275.953125
-79.41,1721467275.96875
-91.54,1721467275.984375
-101.81,1721467276.0
-107.29,1721467276.015625
-105.63,1721467276.03125
-95.98,1721467276.046875
-79.27,1721467276.0625
-57.91,1721467276.078125
-34.89,1721467276.09375
-12.9,1721467276.109375
6.3,1721467276.125
22.0,1721467276.140625
34.19,1721467276.15625
43.17,1721467276.171875
49.25,1721467276.1875
52.66,1721467276.203125
53.6,1721467276.21875
52.39,1721467276.234375
49.48,1721467276.25
45.43,1721467276.265625
40.75,1721467276.28125
35.87,1721467276.296875
31.08,1721467276.3125
26.53,1721467276.328125
22.39,1721467276.34375
18.78,1721467276.359375
15.86,1721467276.375
13.65,1721467276.390625
11.94,1721467276.40625
10.26,1721467276.421875
7.93,1721467276.4375
4.42,1721467276.453125
-0.53,1721467276.46875
-6.66,1721467276.484375
-13.36,1721467276.5
-19.86,1721467276.515625
-25.61,1721467276.53125
-30.48,1721467276.546875
-34.88,1721467276.5625
-39.59,1721467276.578125
-45.57,1721467276.59375
-53.64,1721467276.609375
-64.12,1721467276.625
-76.45,1721467276.640625
-88.96,1721467276.65625
-99.08,1721467276.671875
-103.87,1721467276.6875
-100.99,1721467276.703125
-89.59,1721467276.71875
-70.73,1721467276.734375
-47.02,1721467276.75
-21.76,1721467276.765625
2.12,1721467276.78125
22.86,1721467276.796875
39.87,1721467276.8125
53.31,1721467276.828125
63.51,1721467276.84375
70.52,1721467276.859375
74.16,1721467276.875
74.42,1721467276.890625
71.77,1721467276.90625
67.15,1721467276.921875
61.78,1721467276.9375
56.64,1721467276.953125
52.23,1721467276.96875
48.49,1721467276.984375
45.04,1721467277.0
41.55,1721467277.015625
37.97,1721467277.03125
34.55,1721467277.046875
31.73,1721467277.0625
29.75,1721467277.078125
28.54,1721467277.09375
27.55,1721467277.109375
25.96,1721467277.125
22.93,1721467277.140625
17.98,1721467277.15625
11.18,1721467277.171875
3.15,1721467277.1875
-5.15,1721467277.203125
-12.79,1721467277.21875
-19.2,1721467277.234375
-24.48,1721467277.25
-29.28,1721467277.265625
-34.61,1721467277.28125
-41.52,1721467277.296875
-50.76,1721467277.3125
-62.47,1721467277.328125
-75.9,1721467277.34375
-89.34,1721467277.359375
-100.24,1721467277.375
-105.76,1721467277.390625
-103.54,1721467277.40625
-92.56,1721467277.421875
-73.62,1721467277.4375
-49.17,1721467277.453125
-22.57,1721467277.46875
2.91,1721467277.484375
24.93,1721467277.5
42.5,1721467277.515625
55.67,1721467277.53125
65.05,1721467277.546875
71.18,1721467277.5625
74.37,1721467277.578125
74.71,1721467277.59375
72.36,1721467277.609375
67.81,1721467277.625
61.87,1721467277.640625
55.56,1721467277.65625
49.84,1721467277.671875
45.35,1721467277.6875
42.28,1721467277.703125
40.43,1721467277.71875
39.42,1721467277.734375
38.79,1721467277.75
38.24,1721467277.765625
37.57,1721467277.78125
36.67,1721467277.796875
35.41,1721467277.8125
33.61,1721467277.828125
31.13,1721467277.84375
27.9,1721467277.859375
23.94,1721467277.875
19.36,1721467277.890625
14.28,1721467277.90625
8.77,1721467277.921875
2.82,1721467277.9375
-3.6,1721467277.953125
-10.5,1721467277.96875
-17.78,1721467277.984375
-25.18,1721467278.0
-32.35,1721467278.015625
-38.95,1721467278.03125
-44.85,1721467278.046875
-50.2,1721467278.0625
-55.54,1721467278.078125
-61.65,1721467278.09375
-69.33,1721467278.109375
-79.03,1721467278.125
-90.37,1721467278.140625
-101.93,1721467278.15625
-111.31,1721467278.171875
-115.69,1721467278.1875
-112.7,1721467278.203125
-101.29,1721467278.21875
-82.23,1721467278.234375
-57.95,1721467278.25
-31.74,1721467278.265625
-6.68,1721467278.28125
15.15,1721467278.296875
33.01,1721467278.3125
47.12,1721467278.328125
58.05,1721467278.34375
66.17,1721467278.359375
71.53,1721467278.375
73.99,1721467278.390625
73.68,1721467278.40625
71.17,1721467278.421875
67.38,1721467278.4375
63.34,1721467278.453125
59.77,1721467278.46875
56.96,1721467278.484375
54.72,1721467278.5
52.74,1721467278.515625
50.77,1721467278.53125
48.84,1721467278.546875
47.24,1721467278.5625
46.27,1721467278.578125
45.99,1721467278.59375
46.14,1721467278.609375
46.08,1721467278.625
45.14,1721467278.640625
42.78,1721467278.65625
38.91,1721467278.671875
33.84,1721467278.6875
28.17,1721467278.703125
22.55,1721467278.71875
17.42,1721467278.734375
12.88,1721467278.75
8.69,1721467278.765625
4.39,1721467278.78125
-0.56,1721467278.796875
-6.48,1721467278.8125
-13.38,1721467278.828125
-20.86,1721467278.84375
-28.3,1721467278.859375
-35.06,1721467278.875
-40.74,1721467278.890625
-45.35,1721467278.90625
-49.29,1721467278.921875
-53.22,1721467278.9375
-57.86,1721467278.953125
-63.88,1721467278.96875
-71.65,1721467278.984375
-81.12,1721467279.0
-91.47,1721467279.015625
-101.06,1721467279.03125
-107.59,1721467279.046875
-108.62,1721467279.0625
-102.46,1721467279.078125
-88.83,1721467279.09375
-69.14,1721467279.109375
-46.05,1721467279.125
-22.57,1721467279.140625
-1.15,1721467279.15625
16.93,1721467279.171875
31.42,1721467279.1875
42.71,1721467279.203125
51.22,1721467279.21875
57.08,1721467279.234375
60.26,1721467279.25
60.81,1721467279.265625
59.14,1721467279.28125
56.04,1721467279.296875
52.45,1721467279.3125
49.11,1721467279.328125
46.4,1721467279.34375
44.27,1721467279.359375
42.38,1721467279.375
40.43,1721467279.390625
38.3,1721467279.40625
36.17,1721467279.421875
34.35,1721467279.4375
33.12,1721467279.453125
32.55,1721467279.46875
32.36,1721467279.484375
32.0,1721467279.5
30.89,1721467279.515625
28.63,1721467279.53125
25.14,1721467279.546875
20.75,1721467279.5625
16.01,1721467279.578125
11.48,1721467279.59375
7.49,1721467279.609375
4.02,1721467279.625
0.69,1721467279.640625
-3.03,1721467279.65625
-7.67,1721467279.671875
-13.43,1721467279.6875
-20.17,1721467279.703125
-27.37,1721467279.71875
-34.32,1721467279.734375
-40.41,1721467279.75
-45.37,1721467279.765625
-49.29,1721467279.78125
-52.67,1721467279.796875
-56.18,1721467279.8125
-60.5,1721467279.828125
-66.1,1721467279.84375
-73.14,1721467279.859375
-81.21,1721467279.875
-89.19,1721467279.890625
-95.32,1721467279.90625
-97.47,1721467279.921875
-93.76,1721467279.9375
-83.29,1721467279.953125
-66.53,1721467279.96875
-45.4,1721467279.984375
-22.62,1721467280.0
-0.91,1721467280.015625
17.77,1721467280.03125
32.57,1721467280.046875
43.6,1721467280.0625
51.42,1721467280.078125
56.59,1721467280.09375
59.42,1721467280.109375
60.03,1721467280.125
58.64,1721467280.140625
55.72,1721467280.15625
51.97,1721467280.171875
48.15,1721467280.1875
44.83,1721467280.203125
42.2,1721467280.21875
40.15,1721467280.234375
38.41,1721467280.25
36.79,1721467280.265625
35.31,1721467280.28125
34.15,1721467280.296875
33.46,1721467280.3125
33.18,1721467280.328125
33.02,1721467280.34375
32.47,1721467280.359375
31.05,1721467280.375
28.46,1721467280.390625
24.78,1721467280.40625
20.37,1721467280.421875
15.73,1721467280.4375
11.26,1721467280.453125
7.09,1721467280.46875
3.05,1721467280.484375
-1.26,1721467280.5
-6.23,1721467280.515625
-12.02,1721467280.53125
-18.47,1721467280.546875
-25.05,1721467280.5625
-31.17,1721467280.578125
-36.34,1721467280.59375
-40.46,1721467280.609375
-43.85,1721467280.625
-47.21,1721467280.640625
-51.39,1721467280.65625
-57.11,1721467280.671875
-64.59,1721467280.6875
-73.3,1721467280.703125
-81.84,1721467280.71875
-88.16,1721467280.734375
-90.04,1721467280.75
-85.8,1721467280.765625
-74.95,1721467280.78125
-58.4,1721467280.796875
-38.27,1721467280.8125
-17.16,1721467280.828125
2.58,1721467280.84375
19.4,1721467280.859375
32.68,1721467280.875
42.49,1721467280.890625
49.19,1721467280.90625
53.1,1721467280.921875
54.48,1721467280.9375
53.64,1721467280.953125
51.02,1721467280.96875
47.34,1721467280.984375
43.32,1721467281.0
39.53,1721467281.015625
36.21,1721467281.03125
33.27,1721467281.046875
30.53,1721467281.0625
27.88,1721467281.078125
25.44,1721467281.09375
23.48,1721467281.109375
22.24,1721467281.125
21.63,1721467281.140625
21.28,1721467281.15625
20.58,1721467281.171875
18.98,1721467281.1875
16.25,1721467281.203125
12.61,1721467281.21875
8.6,1721467281.234375
4.76,1721467281.25
1.41,1721467281.265625
-1.55,1721467281.28125
-4.58,1721467281.296875
-8.21,1721467281.3125
-12.83,1721467281.328125
-18.39,1721467281.34375
-24.41,1721467281.359375
-30.22,1721467281.375
-35.2,1721467281.390625
-39.1,1721467281.40625
-42.17,1721467281.421875
-45.0,1721467281.4375
-48.4,1721467281.453125
-53.07,1721467281.46875
-59.46,1721467281.484375
-67.5,1721467281.5
-76.48,1721467281.515625
-84.92,1721467281.53125
-90.75,1721467281.546875
-91.75,1721467281.5625
-86.27,1721467281.578125
-73.9,1721467281.59375
-55.78,1721467281.609375
-34.36,1721467281.625
-12.58,1721467281.640625
6.97,1721467281.65625
22.82,1721467281.671875
34.68,1721467281.6875
43.09,1721467281.703125
48.84,1721467281.71875
52.5,1721467281.734375
54.25,1721467281.75
54.1,1721467281.765625
52.08,1721467281.78125
48.48,1721467281.796875
43.84,1721467281.8125
38.84,1721467281.828125
34.12,1721467281.84375
30.13,1721467281.859375
27.1,1721467281.875
25.05,1721467281.890625
23.86,1721467281.90625
23.26,1721467281.921875
22.97,1721467281.9375
22.61,1721467281.953125
21.9,1721467281.96875
20.63,1721467281.984375
18.76,1721467282.0
16.37,1721467282.015625
13.58,1721467282.03125
10.46,1721467282.046875
6.94,1721467282.0625
2.85,1721467282.078125
-1.99,1721467282.09375
-7.63,1721467282.109375
-13.86,1721467282.125
-20.31,1721467282.140625
-26.51,1721467282.15625
-32.13,1721467282.171875
-37.09,1721467282.1875
-41.6,1721467282.203125
-46.08,1721467282.21875
-51.11,1721467282.234375
-57.27,1721467282.25
-64.98,1721467282.265625
-74.19,1721467282.28125
-84.13,1721467282.296875
-93.14,1721467282.3125
-98.85,1721467282.328125
-98.81,1721467282.34375
-91.4,1721467282.359375
-76.48,1721467282.375
-55.67,1721467282.390625
-31.89,1721467282.40625
-8.37,1721467282.421875
12.35,1721467282.4375
28.98,1721467282.453125
41.46,1721467282.46875
50.4,1721467282.484375
56.45,1721467282.5
59.91,1721467282.515625
60.74,1721467282.53125
58.9,1721467282.546875
54.73,1721467282.5625
49.03,1721467282.578125
43.0,1721467282.59375
37.71,1721467282.609375
33.82,1721467282.625
31.31,1721467282.640625
29.65,1721467282.65625
28.13,1721467282.671875
26.29,1721467282.6875
24.14,1721467282.703125
22.13,1721467282.71875
20.76,1721467282.734375
20.26,1721467282.75
20.3,1721467282.765625
20.08,1721467282.78125
18.7,1721467282.796875
15.47,1721467282.8125
10.33,1721467282.828125
3.75,1721467282.84375
-3.47,1721467282.859375
-10.5,1721467282.875
-16.83,1721467282.890625
-22.3,1721467282.90625
-27.18,1721467282.921875
-31.95,1721467282.9375
-37.33,1721467282.953125
-44.05,1721467282.96875
-52.68,1721467282.984375
-63.33,1721467283.0
-75.24,1721467283.015625
-86.69,1721467283.03125
-95.12,1721467283.046875
-97.85,1721467283.0625
-92.91,1721467283.078125
-79.89,1721467283.09375
-60.17,1721467283.109375
-36.58,1721467283.125
-12.46,1721467283.140625
9.4,1721467283.15625
27.37,1721467283.171875
41.07,1721467283.1875
50.87,1721467283.203125
57.34,1721467283.21875
60.77,1721467283.234375
61.23,1721467283.25
58.8,1721467283.265625
53.91,1721467283.28125
47.49,1721467283.296875
40.67,1721467283.3125
34.42,1721467283.328125
29.21,1721467283.34375
24.95,1721467283.359375
21.18,1721467283.375
17.54,1721467283.390625
13.97,1721467283.40625
10.79,1721467283.421875
8.46,1721467283.4375
7.24,1721467283.453125
6.97,1721467283.46875
7.01,1721467283.484375
6.46,1721467283.5
4.44,1721467283.515625
0.49,1721467283.53125
-5.37,1721467283.546875
-12.53,1721467283.5625
-20.12,1721467283.578125
-27.26,1721467283.59375
-33.41,1721467283.609375
-38.5,1721467283.625
-43.0,1721467283.640625
-47.76,1721467283.65625
-53.75,1721467283.671875
-61.81,1721467283.6875
-72.27,1721467283.703125
-84.71,1721467283.71875
-97.64,1721467283.734375
-108.7,1721467283.75
-114.98,1721467283.765625
-113.95,1721467283.78125
-104.27,1721467283.796875
-86.38,1721467283.8125
-62.47,1721467283.828125
-35.78,1721467283.84375
-9.58,1721467283.859375
13.73,1721467283.875
33.04,1721467283.890625
48.32,1721467283.90625
60.02,1721467283.921875
68.58,1721467283.9375
74.08,1721467283.953125
76.47,1721467283.96875
75.81,1721467283.984375
72.67,1721467284.0
68.03,1721467284.015625
63.09,1721467284.03125
58.83,1721467284.046875
55.68,1721467284.0625
53.46,1721467284.078125
51.56,1721467284.09375
49.34,1721467284.109375
46.43,1721467284.125
42.97,1721467284.140625
39.45,1721467284.15625
36.46,1721467284.171875
34.31,1721467284.1875
32.86,1721467284.203125
31.44,1721467284.21875
29.19,1721467284.234375
25.28,1721467284.25
19.36,1721467284.265625
11.62,1721467284.28125
2.79,1721467284.296875
-6.14,1721467284.3125
-14.31,1721467284.328125
-21.31,1721467284.34375
-27.29,1721467284.359375
-32.88,1721467284.375
-38.95,1721467284.390625
-46.39,1721467284.40625
-55.83,1721467284.421875
-67.46,1721467284.4375
-80.7,1721467284.453125
-94.1,1721467284.46875
-105.35,1721467284.484375
-111.59,1721467284.5
-110.26,1721467284.515625
-99.92,1721467284.53125
-81.0,1721467284.546875
-55.78,1721467284.5625
-27.73,1721467284.578125
-0.47,1721467284.59375
23.35,1721467284.609375
42.52,1721467284.625
57.07,1721467284.640625
67.67,1721467284.65625
74.95,1721467284.671875
79.22,1721467284.6875
80.57,1721467284.703125
79.17,1721467284.71875
75.55,1721467284.734375
70.6,1721467284.75
65.3,1721467284.765625
60.46,1721467284.78125
56.49,1721467284.796875
53.4,1721467284.8125
51.01,1721467284.828125
49.11,1721467284.84375
47.53,1721467284.859375
46.16,1721467284.875
44.9,1721467284.890625
43.58,1721467284.90625
42.0,1721467284.921875
39.93,1721467284.9375
37.21,1721467284.953125
33.78,1721467284.96875
29.65,1721467284.984375
24.82,1721467285.0
19.24,1721467285.015625
12.79,1721467285.03125
5.37,1721467285.046875
-2.94,1721467285.0625
-11.79,1721467285.078125
-20.56,1721467285.09375
-28.57,1721467285.109375
-35.34,1721467285.125
-40.83,1721467285.140625
-45.6,1721467285.15625
-50.63,1721467285.171875
-57.08,1721467285.1875
-65.77,1721467285.203125
-76.88,1721467285.21875
-89.58,1721467285.234375
-101.97,1721467285.25
-111.35,1721467285.265625
-114.84,1721467285.28125
-110.21,1721467285.296875
-96.64,1721467285.3125
-75.1,1721467285.328125
-48.16,1721467285.34375
-19.28,1721467285.359375
8.16,1721467285.375
31.71,1721467285.390625
50.24,1721467285.40625
63.78,1721467285.421875
73.0,1721467285.4375
78.71,1721467285.453125
81.51,1721467285.46875
81.78,1721467285.484375
79.84,1721467285.5
76.19,1721467285.515625
71.5,1721467285.53125
66.56,1721467285.546875
62.05,1721467285.5625
58.39,1721467285.578125
55.67,1721467285.59375
53.76,1721467285.609375
52.48,1721467285.625
51.65,1721467285.640625
51.13,1721467285.65625
50.73,1721467285.671875
50.16,1721467285.6875
49.07,1721467285.703125
47.14,1721467285.71875
44.22,1721467285.734375
40.4,1721467285.75
35.91,1721467285.765625
31.0,1721467285.78125
25.77,1721467285.796875
20.1,1721467285.8125
13.78,1721467285.828125
6.63,1721467285.84375
-1.3,1721467285.859375
-9.67,1721467285.875
-17.98,1721467285.890625
-25.76,1721467285.90625
-32.74,1721467285.921875
-39.0,1721467285.9375
-44.97,1721467285.953125
-51.35,1721467285.96875
-58.95,1721467285.984375
-68.45,1721467286.0
-79.98,1721467286.015625
-92.75,1721467286.03125
-104.82,1721467286.046875
-113.37,1721467286.0625
-115.41,1721467286.078125
-108.84,1721467286.09375
-93.26,1721467286.109375
-70.34,1721467286.125
-43.28,1721467286.140625
-15.8,1721467286.15625
9.03,1721467286.171875
29.4,1721467286.1875
44.91,1721467286.203125
56.03,1721467286.21875
63.48,1721467286.234375
67.86,1721467286.25
69.51,1721467286.265625
68.76,1721467286.28125
66.09,1721467286.296875
62.23,1721467286.3125
58.05,1721467286.328125
54.41,1721467286.34375
51.88,1721467286.359375
50.66,1721467286.375
50.63,1721467286.390625
51.38,1721467286.40625
52.48,1721467286.421875
53.55,1721467286.4375
54.31,1721467286.453125
54.55,1721467286.46875
54.07,1721467286.484375
52.62,1721467286.5
49.94,1721467286.515625
45.95,1721467286.53125
40.76,1721467286.546875
34.71,1721467286.5625
28.2,1721467286.578125
21.53,1721467286.59375
14.8,1721467286.609375
7.82,1721467286.625
0.35,1721467286.640625
-7.74,1721467286.65625
-16.32,1721467286.671875
-24.95,1721467286.6875
-33.12,1721467286.703125
-40.34,1721467286.71875
-46.52,1721467286.734375
-52.03,1721467286.75
-57.74,1721467286.765625
-64.75,1721467286.78125
-73.97,1721467286.796875
-85.53,1721467286.8125
-98.32,1721467286.828125
-109.88,1721467286.84375
-116.97,1721467286.859375
-116.52,1721467286.875
-106.8,1721467286.890625
-88.2,1721467286.90625
-63.09,1721467286.921875
-35.07,1721467286.9375
-7.74,1721467286.953125
16.38,1721467286.96875
36.14,1721467286.984375
51.56,1721467287.0
63.16,1721467287.015625
71.39,1721467287.03125
76.43,1721467287.046875
78.42,1721467287.0625
77.68,1721467287.078125
74.89,1721467287.09375
70.97,1721467287.109375
66.84,1721467287.125
63.13,1721467287.140625
60.07,1721467287.15625
57.59,1721467287.171875
55.43,1721467287.1875
53.39,1721467287.203125
51.48,1721467287.21875
49.84,1721467287.234375
48.72,1721467287.25
48.2,1721467287.265625
48.12,1721467287.28125
47.98,1721467287.296875
47.12,1721467287.3125
44.9,1721467287.328125
40.99,1721467287.34375
35.51,1721467287.359375
29.01,1721467287.375
22.3,1721467287.390625
16.06,1721467287.40625
10.6,1721467287.421875
5.71,1721467287.4375
0.74,1721467287.453125
-5.07,1721467287.46875
-12.27,1721467287.484375
-20.84,1721467287.5
-30.18,1721467287.515625
-39.32,1721467287.53125
-47.27,1721467287.546875
-53.46,1721467287.5625
-57.98,1721467287.578125
-61.53,1721467287.59375
-65.2,1721467287.609375
-70.17,1721467287.625
-77.31,1721467287.640625
-86.97,1721467287.65625
-98.63,1721467287.671875
-110.79,1721467287.6875
-121.0,1721467287.703125
-126.36,1721467287.71875
-124.29,1721467287.734375
-113.42,1721467287.75
-94.22,1721467287.765625
-68.93,1721467287.78125
-40.97,1721467287.796875
-13.82,1721467287.8125
9.96,1721467287.828125
29.17,1721467287.84375
43.8,1721467287.859375
54.49,1721467287.875
61.88,1721467287.890625
66.32,1721467287.90625
67.93,1721467287.921875
66.95,1721467287.9375
63.95,1721467287.953125
59.87,1721467287.96875
55.72,1721467287.984375
52.28,1721467288.0
49.82,1721467288.015625
48.09,1721467288.03125
46.63,1721467288.046875
45.08,1721467288.0625
43.42,1721467288.078125
42.0,1721467288.09375
41.22,1721467288.109375
41.31,1721467288.125
41.99,1721467288.140625
42.59,1721467288.15625
42.26,1721467288.171875
40.3,1721467288.1875
36.52,1721467288.203125
31.3,1721467288.21875
25.43,1721467288.234375
19.74,1721467288.25
14.77,1721467288.265625
10.54,1721467288.28125
6.57,1721467288.296875
2.1,1721467288.3125
-3.52,1721467288.328125
-10.53,1721467288.34375
-18.64,1721467288.359375
-27.13,1721467288.375
-35.21,1721467288.390625
-42.23,1721467288.40625
-47.99,1721467288.421875
-52.76,1721467288.4375
-57.15,1721467288.453125
-62.01,1721467288.46875
-68.15,1721467288.484375
-76.18,1721467288.5
-86.24,1721467288.515625
-97.64,1721467288.53125
-108.65,1721467288.546875
-116.68,1721467288.5625
-118.79,1721467288.578125
-112.66,1721467288.59375
-97.51,1721467288.609375
-74.52,1721467288.625
-46.65,1721467288.640625
-17.65,1721467288.65625
9.06,1721467288.671875
31.27,1721467288.6875
48.21,1721467288.703125
60.23,1721467288.71875
68.12,1721467288.734375
72.63,1721467288.75
74.27,1721467288.765625
73.41,1721467288.78125
70.59,1721467288.796875
66.51,1721467288.8125
61.95,1721467288.828125
57.56,1721467288.84375
53.68,1721467288.859375
50.36,1721467288.875
47.48,1721467288.890625
44.94,1721467288.90625
42.77,1721467288.921875
41.12,1721467288.9375
40.08,1721467288.953125
39.57,1721467288.96875
39.24,1721467288.984375
38.54,1721467289.0
36.89,1721467289.015625
33.94,1721467289.03125
29.67,1721467289.046875
24.47,1721467289.0625
18.9,1721467289.078125
13.43,1721467289.09375
8.23,1721467289.109375
3.08,1721467289.125
-2.46,1721467289.140625
-8.82,1721467289.15625
-16.07,1721467289.171875
-23.94,1721467289.1875
-31.8,1721467289.203125
-39.05,1721467289.21875
-45.32,1721467289.234375
-50.7,1721467289.25
-55.73,1721467289.265625
-61.25,1721467289.28125
-68.18,1721467289.296875
-77.12,1721467289.3125
-88.03,1721467289.328125
-99.86,1721467289.34375
-110.47,1721467289.359375
-116.96,1721467289.375
-116.5,1721467289.390625
-107.28,1721467289.40625
-89.34,1721467289.421875
-64.72,1721467289.4375
-36.88,1721467289.453125
-9.53,1721467289.46875
14.44,1721467289.484375
33.6,1721467289.5
47.84,1721467289.515625
57.78,1721467289.53125
64.15,1721467289.546875
67.4,1721467289.5625
67.8,1721467289.578125
65.69,1721467289.59375
61.72,1721467289.609375
56.78,1721467289.625
51.73,1721467289.640625
47.19,1721467289.65625
43.47,1721467289.671875
40.58,1721467289.6875
38.45,1721467289.703125
37.02,1721467289.71875
36.21,1721467289.734375
35.9,1721467289.75
35.81,1721467289.765625
35.58,1721467289.78125
34.81,1721467289.796875
33.22,1721467289.8125
30.72,1721467289.828125
27.37,1721467289.84375
23.33,1721467289.859375
18.79,1721467289.875
13.82,1721467289.890625
8.39,1721467289.90625
2.38,1721467289.921875
-4.27,1721467289.9375
-11.48,1721467289.953125
-19.02,1721467289.96875
-26.54,1721467289.984375
-33.72,1721467290.0
-40.39,1721467290.015625
-46.65,1721467290.03125
-52.85,1721467290.046875
-59.57,1721467290.0625
-67.46,1721467290.078125
-77.06,1721467290.09375
-88.5,1721467290.109375
-101.12,1721467290.125
-113.25,1721467290.140625
-122.29,1721467290.15625
-125.29,1721467290.171875
-119.88,1721467290.1875
-105.21,1721467290.203125
-82.45,1721467290.21875
-54.55,1721467290.234375
-25.27,1721467290.25
1.91,1721467290.265625
24.79,1721467290.28125
42.58,1721467290.296875
55.61,1721467290.3125
64.6,1721467290.328125
70.17,1721467290.34375
72.64,1721467290.359375
72.29,1721467290.375
69.56,1721467290.390625
65.19,1721467290.40625
60.07,1721467290.421875
55.05,1721467290.4375
50.65,1721467290.453125
46.99,1721467290.46875
43.99,1721467290.484375
41.51,1721467290.5
39.51,1721467290.515625
38.06,1721467290.53125
37.21,1721467290.546875
36.84,1721467290.5625
36.6,1721467290.578125
35.96,1721467290.59375
34.4,1721467290.609375
31.61,1721467290.625
27.68,1721467290.640625
22.93,1721467290.65625
17.84,1721467290.671875
12.75,1721467290.6875
7.69,1721467290.703125
2.41,1721467290.71875
-3.46,1721467290.734375
-10.17,1721467290.75
-17.72,1721467290.765625
-25.74,1721467290.78125
-33.7,1721467290.796875
-41.11,1721467290.8125
-47.69,1721467290.828125
-53.58,1721467290.84375
-59.33,1721467290.859375
-65.78,1721467290.875
-73.83,1721467290.890625
-83.99,1721467290.90625
-95.94,1721467290.921875
-108.17,1721467290.9375
-117.99,1721467290.953125
-122.25,1721467290.96875
-118.23,1721467290.984375
-104.79,1721467291.0
-82.85,1721467291.015625
-55.25,1721467291.03125
-25.78,1721467291.046875
2.0,1721467291.0625
25.74,1721467291.078125
44.6,1721467291.09375
58.85,1721467291.109375
69.18,1721467291.125
76.11,1721467291.140625
79.83,1721467291.15625
80.4,1721467291.171875
78.18,1721467291.1875
73.98,1721467291.203125
68.96,1721467291.21875
64.28,1721467291.234375
60.62,1721467291.25
58.07,1721467291.265625
56.21,1721467291.28125
54.49,1721467291.296875
52.63,1721467291.3125
50.76,1721467291.328125
49.33,1721467291.34375
48.73,1721467291.359375
48.99,1721467291.375
49.6,1721467291.390625
49.67,1721467291.40625
48.3,1721467291.421875
44.95,1721467291.4375
39.68,1721467291.453125
33.12,1721467291.46875
26.22,1721467291.484375
19.83,1721467291.5
14.41,1721467291.515625
9.8,1721467291.53125
5.36,1721467291.546875
0.22,1721467291.5625
-6.35,1721467291.578125
-14.6,1721467291.59375
-24.15,1721467291.609375
-34.07,1721467291.625
-43.32,1721467291.640625
-51.06,1721467291.65625
-57.07,1721467291.671875
-61.85,1721467291.6875
-66.42,1721467291.703125
-72.05,1721467291.71875
-79.84,1721467291.734375
-90.33,1721467291.75
-103.08,1721467291.765625
-116.59,1721467291.78125
-128.23,1721467291.796875
-134.79,1721467291.8125
-133.34,1721467291.828125
-122.23,1721467291.84375
-101.81,1721467291.859375
-74.47,1721467291.875
-43.93,1721467291.890625
-14.08,1721467291.90625
12.17,1721467291.921875
33.36,1721467291.9375
49.4,1721467291.953125
60.95,1721467291.96875
68.75,1721467291.984375
73.25,1721467292.0
74.74,1721467292.015625
73.55,1721467292.03125
70.34,1721467292.046875
66.07,1721467292.0625
61.75,1721467292.078125
58.12,1721467292.09375
55.49,1721467292.109375
53.71,1721467292.125
52.41,1721467292.140625
51.24,1721467292.15625
50.13,1721467292.171875
49.3,1721467292.1875
49.05,1721467292.203125
49.52,1721467292.21875
50.46,1721467292.234375
51.18,1721467292.25
50.77,1721467292.265625
48.51,1721467292.28125
44.17,1721467292.296875
38.23,1721467292.3125
31.64,1721467292.328125
25.44,1721467292.34375
20.26,1721467292.359375
15.98,1721467292.375
11.86,1721467292.390625
6.83,1721467292.40625
0.13,1721467292.421875
-8.34,1721467292.4375
-17.94,1721467292.453125
-27.54,1721467292.46875
-36.07,1721467292.484375
-42.92,1721467292.5
-48.2,1721467292.515625
-52.63,1721467292.53125
-57.29,1721467292.546875
-63.26,1721467292.5625
-71.38,1721467292.578125
-81.91,1721467292.59375
-94.3,1721467292.609375
-106.91,1721467292.625
-117.07,1721467292.640625
-121.58,1721467292.65625
-117.66,1721467292.671875
-103.99,1721467292.6875
-81.4,1721467292.703125
-52.77,1721467292.71875
-22.14,1721467292.734375
6.52,1721467292.75
30.52,1721467292.765625
48.8,1721467292.78125
61.64,1721467292.796875
69.99,1721467292.8125
74.7,1721467292.828125
76.29,1721467292.84375
75.03,1721467292.859375
71.3,1721467292.875
65.89,1721467292.890625
59.91,1721467292.90625
54.49,1721467292.921875
50.44,1721467292.9375
47.99,1721467292.953125
46.77,1721467292.96875
46.16,1721467292.984375
45.65,1721467293.0
45.08,1721467293.015625
44.62,1721467293.03125
44.57,1721467293.046875
44.98,1721467293.0625
45.44,1721467293.078125
45.19,1721467293.09375
43.41,1721467293.109375
39.64,1721467293.125
34.06,1721467293.140625
27.42,1721467293.15625
20.76,1721467293.171875
14.89,1721467293.1875
10.03,1721467293.203125
5.7,1721467293.21875
0.98,1721467293.234375
-4.99,1721467293.25
-12.6,1721467293.265625
-21.54,1721467293.28125
-30.91,1721467293.296875
-39.7,1721467293.3125
-47.17,1721467293.328125
-53.2,1721467293.34375
-58.32,1721467293.359375
-63.46,1721467293.375
-69.69,1721467293.390625
-77.88,1721467293.40625
-88.43,1721467293.421875
-100.95,1721467293.4375
-113.96,1721467293.453125
-124.88,1721467293.46875
-130.48,1721467293.484375
-127.78,1721467293.5
-115.19,1721467293.515625
-93.3,1721467293.53125
-64.82,1721467293.546875
-33.78,1721467293.5625
-4.23,1721467293.578125
21.06,1721467293.59375
40.98,1721467293.609375
55.88,1721467293.625
66.71,1721467293.640625
74.26,1721467293.65625
78.83,1721467293.671875
80.43,1721467293.6875
79.19,1721467293.703125
75.69,1721467293.71875
70.98,1721467293.734375
66.2,1721467293.75
62.22,1721467293.765625
59.33,1721467293.78125
57.33,1721467293.796875
55.77,1721467293.8125
54.36,1721467293.828125
53.14,1721467293.84375
52.39,1721467293.859375
52.38,1721467293.875
53.04,1721467293.890625
53.85,1721467293.90625
53.92,1721467293.921875
52.39,1721467293.9375
48.8,1721467293.953125
43.32,1721467293.96875
36.67,1721467293.984375
29.82,1721467294.0
23.56,1721467294.015625
18.13,1721467294.03125
13.17,1721467294.046875
7.9,1721467294.0625
1.55,1721467294.078125
-6.28,1721467294.09375
-15.4,1721467294.109375
-25.08,1721467294.125
-34.37,1721467294.140625
-42.5,1721467294.15625
-49.19,1721467294.171875
-54.78,1721467294.1875
-60.09,1721467294.203125
-66.21,1721467294.21875
-74.15,1721467294.234375
-84.55,1721467294.25
-97.33,1721467294.265625
-111.33,1721467294.28125
-124.22,1721467294.296875
-132.8,1721467294.3125
-133.81,1721467294.328125
-125.02,1721467294.34375
-106.21,1721467294.359375
-79.37,1721467294.375
-48.22,1721467294.390625
-16.98,1721467294.40625
10.99,1721467294.421875
33.85,1721467294.4375
51.37,1721467294.453125
64.23,1721467294.46875
73.31,1721467294.484375
79.17,1721467294.5
82.0,1721467294.515625
82.02,1721467294.53125
79.74,1721467294.546875
76.04,1721467294.5625
71.93,1721467294.578125
68.23,1721467294.59375
65.3,1721467294.609375
63.0,1721467294.625
60.93,1721467294.640625
58.73,1721467294.65625
56.33,1721467294.671875
54.02,1721467294.6875
52.24,1721467294.703125
51.27,1721467294.71875
50.96,1721467294.734375
50.74,1721467294.75
49.76,1721467294.765625
47.24,1721467294.78125
42.86,1721467294.796875
36.88,1721467294.8125
30.06,1721467294.828125
23.31,1721467294.84375
17.3,1721467294.859375
12.16,1721467294.875
7.41,1721467294.890625
2.22,1721467294.90625
-4.25,1721467294.921875
-12.4,1721467294.9375
-21.98,1721467294.953125
-32.16,1721467294.96875
-41.83,1721467294.984375
-50.16,1721467295.0
-56.87,1721467295.015625
-62.46,1721467295.03125
-68.02,1721467295.046875
-74.84,1721467295.0625
-83.98,1721467295.078125
-95.81,1721467295.09375
-109.59,1721467295.109375
-123.46,1721467295.125
-134.5,1721467295.140625
-139.47,1721467295.15625
-135.65,1721467295.171875
-121.87,1721467295.1875
-98.99,1721467295.203125
-69.78,1721467295.21875
-38.14,1721467295.234375
-7.89,1721467295.25
18.24,1721467295.265625
39.0,1721467295.28125
54.48,1721467295.296875
65.42,1721467295.3125
72.68,1721467295.328125
76.86,1721467295.34375
78.35,1721467295.359375
77.56,1721467295.375
75.02,1721467295.390625
71.42,1721467295.40625
67.45,1721467295.421875
63.65,1721467295.4375
60.28,1721467295.453125
57.43,1721467295.46875
55.03,1721467295.484375
53.07,1721467295.5
51.58,1721467295.515625
50.65,1721467295.53125
50.23,1721467295.546875
50.12,1721467295.5625
49.85,1721467295.578125
48.78,1721467295.59375
46.34,1721467295.609375
42.24,1721467295.625
36.67,1721467295.640625
30.26,1721467295.65625
23.81,1721467295.671875
17.91,1721467295.6875
12.64,1721467295.703125
7.56,1721467295.71875
1.92,1721467295.734375
-4.91,1721467295.75
-13.06,1721467295.765625
-22.09,1721467295.78125
-31.19,1721467295.796875
-39.53,1721467295.8125
-46.71,1721467295.828125
-52.88,1721467295.84375
-58.72,1721467295.859375
-65.21,1721467295.875
-73.3,1721467295.890625
-83.54,1721467295.90625
-95.66,1721467295.921875
-108.29,1721467295.9375
-118.96,1721467295.953125
-124.55,1721467295.96875
-122.16,1721467295.984375
-110.16,1721467296.0
-88.96,1721467296.015625
-60.99,1721467296.03125
-30.01,1721467296.046875
0.06,1721467296.0625
26.26,1721467296.078125
47.18,1721467296.09375
62.75,1721467296.109375
73.67,1721467296.125
80.79,1721467296.140625
84.63,1721467296.15625
85.48,1721467296.171875
83.61,1721467296.1875
79.47,1721467296.203125
73.8,1721467296.21875
67.5,1721467296.234375
61.39,1721467296.25
56.12,1721467296.265625
52.02,1721467296.28125
49.14,1721467296.296875
47.29,1721467296.3125
46.16,1721467296.328125
45.34,1721467296.34375
44.44,1721467296.359375
43.09,1721467296.375
41.03,1721467296.390625
38.15,1721467296.40625
34.46,1721467296.421875
30.09,1721467296.4375
25.22,1721467296.453125
19.97,1721467296.46875
14.4,1721467296.484375
8.39,1721467296.5
1.82,1721467296.515625
-5.38,1721467296.53125
-13.09,1721467296.546875
-21.05,1721467296.5625
-28.86,1721467296.578125
-36.19,1721467296.59375
-42.89,1721467296.609375
-49.14,1721467296.625
-55.42,1721467296.640625
-62.46,1721467296.65625
-71.06,1721467296.671875
-81.64,1721467296.6875
-93.84,1721467296.703125
-106.16,1721467296.71875
-115.95,1721467296.734375
-119.97,1721467296.75
-115.42,1721467296.765625
-101.07,1721467296.78125
-77.89,1721467296.796875
-48.94,1721467296.8125
-18.34,1721467296.828125
10.01,1721467296.84375
33.54,1721467296.859375
51.39,1721467296.875
64.0,1721467296.890625
72.33,1721467296.90625
77.12,1721467296.921875
78.66,1721467296.9375
76.96,1721467296.953125
72.3,1721467296.96875
65.43,1721467296.984375
57.55,1721467297.0
50.02,1721467297.015625
43.87,1721467297.03125
39.57,1721467297.046875
37.01,1721467297.0625
35.59,1721467297.078125
34.58,1721467297.09375
33.33,1721467297.109375
31.52,1721467297.125
29.08,1721467297.140625
26.16,1721467297.15625
22.97,1721467297.171875
19.59,1721467297.1875
15.94,1721467297.203125
11.74,1721467297.21875
6.6,1721467297.234375
0.27,1721467297.25
-7.3,1721467297.265625
-15.85,1721467297.28125
-24.81,1721467297.296875
-33.56,1721467297.3125
-41.59,1721467297.328125
-48.7,1721467297.34375
-55.03,1721467297.359375
-61.06,1721467297.375
-67.43,1721467297.390625
-74.84,1721467297.40625
-83.93,1721467297.421875
-95.01,1721467297.4375
-107.83,1721467297.453125
-121.18,1721467297.46875
-132.8,1721467297.484375
-139.63,1721467297.5
-138.68,1721467297.515625
-128.0,1721467297.53125
-107.64,1721467297.546875
-79.82,1721467297.5625
-48.29,1721467297.578125
-17.14,1721467297.59375
10.47,1721467297.609375
32.95,1721467297.625
50.26,1721467297.640625
63.13,1721467297.65625
72.34,1721467297.671875
78.31,1721467297.6875
81.13,1721467297.703125
80.98,1721467297.71875
78.43,1721467297.734375
74.47,1721467297.75
70.2,1721467297.765625
66.44,1721467297.78125
63.48,1721467297.796875
61.14,1721467297.8125
59.06,1721467297.828125
57.01,1721467297.84375
55.12,1721467297.859375
53.75,1721467297.875
53.27,1721467297.890625
53.72,1721467297.90625
54.69,1721467297.921875
55.34,1721467297.9375
54.74,1721467297.953125
52.18,1721467297.96875
47.48,1721467297.984375
41.09,1721467298.0
33.89,1721467298.015625
26.87,1721467298.03125
20.72,1721467298.046875
15.49,1721467298.0625
10.63,1721467298.078125
5.21,1721467298.09375
-1.59,1721467298.109375
-10.1,1721467298.125
-19.96,1721467298.140625
-30.26,1721467298.15625
-39.91,1721467298.171875
-48.15,1721467298.1875
-54.85,1721467298.203125
-60.54,1721467298.21875
-66.23,1721467298.234375
-73.1,1721467298.25
-82.18,1721467298.265625
-93.99,1721467298.28125
-108.21,1721467298.296875
-123.36,1721467298.3125
-136.78,1721467298.328125
-145.02,1721467298.34375
-144.83,1721467298.359375
-134.31,1721467298.375
-113.66,1721467298.390625
-85.36,1721467298.40625
-53.34,1721467298.421875
-21.68,1721467298.4375
6.55,1721467298.453125
29.9,1721467298.46875
48.29,1721467298.484375
62.35,1721467298.5
72.73,1721467298.515625
79.74,1721467298.53125
83.5,1721467298.546875
84.28,1721467298.5625
82.67,1721467298.578125
79.54,1721467298.59375
75.79,1721467298.609375
72.02,1721467298.625
68.5,1721467298.640625
65.22,1721467298.65625
62.15,1721467298.671875
59.42,1721467298.6875
57.37,1721467298.703125
56.29,1721467298.71875
56.26,1721467298.734375
56.9,1721467298.75
57.48,1721467298.765625
57.07,1721467298.78125
54.99,1721467298.796875
51.04,1721467298.8125
45.57,1721467298.828125
39.34,1721467298.84375
33.1,1721467298.859375
27.27,1721467298.875
21.76,1721467298.890625
16.03,1721467298.90625
9.35,1721467298.921875
1.24,1721467298.9375
-8.31,1721467298.953125
-18.77,1721467298.96875
-29.25,1721467298.984375
-38.93,1721467299.0
-47.29,1721467299.015625
-54.43,1721467299.03125
-60.99,1721467299.046875
-68.03,1721467299.0625
-76.65,1721467299.078125
-87.65,1721467299.09375
-101.03,1721467299.109375
-115.59,1721467299.125
-128.86,1721467299.140625
-137.48,1721467299.15625
-138.16,1721467299.171875
-128.78,1721467299.1875
-109.32,1721467299.203125
-82.03,1721467299.21875
-50.77,1721467299.234375
-19.69,1721467299.25
7.97,1721467299.265625
30.65,1721467299.28125
48.27,1721467299.296875
61.59,1721467299.3125
71.42,1721467299.328125
78.2,1721467299.34375
82.03,1721467299.359375
83.06,1721467299.375
81.73,1721467299.390625
78.84,1721467299.40625
75.28,1721467299.421875
71.75,1721467299.4375
68.52,1721467299.453125
65.49,1721467299.46875
62.45,1721467299.484375
59.32,1721467299.5
56.31,1721467299.515625
53.87,1721467299.53125
52.44,1721467299.546875
52.1,1721467299.5625
52.38,1721467299.578125
52.4,1721467299.59375
51.13,1721467299.609375
47.91,1721467299.625
42.69,1721467299.640625
36.15,1721467299.65625
29.25,1721467299.671875
22.82,1721467299.6875
17.12,1721467299.703125
11.74,1721467299.71875
5.81,1721467299.734375
-1.45,1721467299.75
-10.36,1721467299.765625
-20.52,1721467299.78125
-31.0,1721467299.796875
-40.74,1721467299.8125
-49.01,1721467299.828125
-55.74,1721467299.84375
-61.51,1721467299.859375
-67.38,1721467299.875
-74.55,1721467299.890625
-83.94,1721467299.90625
-95.89,1721467299.921875
-109.74,1721467299.9375
-123.68,1721467299.953125
-134.85,1721467299.96875
-139.94,1721467299.984375
-136.21,1721467300.0
-122.42,1721467300.015625
-99.49,1721467300.03125
-70.32,1721467300.046875
-38.89,1721467300.0625
-9.04,1721467300.078125
16.54,1721467300.09375
36.81,1721467300.109375
51.99,1721467300.125
62.97,1721467300.140625
70.53,1721467300.15625
75.05,1721467300.171875
76.6,1721467300.1875
75.31,1721467300.203125
71.71,1721467300.21875
66.74,1721467300.234375
61.64,1721467300.25
57.49,1721467300.265625
54.89,1721467300.28125
53.86,1721467300.296875
53.9,1721467300.3125
54.29,1721467300.328125
54.43,1721467300.34375
53.98,1721467300.359375
52.89,1721467300.375
51.25,1721467300.390625
49.15,1721467300.40625
46.59,1721467300.421875
43.48,1721467300.4375
39.69,1721467300.453125
35.1,1721467300.46875
29.63,1721467300.484375
23.18,1721467300.5
15.79,1721467300.515625
7.6,1721467300.53125
-1.11,1721467300.546875
-9.96,1721467300.5625
-18.6,1721467300.578125
-26.82,1721467300.59375
-34.65,1721467300.609375
-42.35,1721467300.625
-50.34,1721467300.640625
-59.18,1721467300.65625
-69.4,1721467300.671875
-81.38,1721467300.6875
-94.97,1721467300.703125
-109.12,1721467300.71875
-121.68,1721467300.734375
-129.7,1721467300.75
-130.24,1721467300.765625
-121.36,1721467300.78125
-103.04,1721467300.796875
-77.31,1721467300.8125
-47.69,1721467300.828125
-18.01,1721467300.84375
8.7,1721467300.859375
30.83,1721467300.875
48.15,1721467300.890625
61.18,1721467300.90625
70.61,1721467300.921875
76.87,1721467300.9375
80.07,1721467300.953125
80.37,1721467300.96875
78.14,1721467300.984375
74.14,1721467301.0
69.35,1721467301.015625
64.76,1721467301.03125
61.07,1721467301.046875
58.54,1721467301.0625
57.03,1721467301.078125
56.23,1721467301.09375
55.78,1721467301.109375
55.48,1721467301.125
55.2,1721467301.140625
54.77,1721467301.15625
53.9,1721467301.171875
52.15,1721467301.1875
49.11,1721467301.203125
44.59,1721467301.21875
38.83,1721467301.234375
32.35,1721467301.25
25.82,1721467301.265625
19.66,1721467301.28125
13.86,1721467301.296875
7.93,1721467301.3125
1.2,1721467301.328125
-6.88,1721467301.34375
-16.31,1721467301.359375
-26.54,1721467301.375
-36.61,1721467301.390625
-45.58,1721467301.40625
-53.0,1721467301.421875
-59.07,1721467301.4375
-64.68,1721467301.453125
-71.13,1721467301.46875
-79.62,1721467301.484375
-90.83,1721467301.5
-104.41,1721467301.515625
-118.78,1721467301.53125
-131.16,1721467301.546875
-138.24,1721467301.5625
-137.06,1721467301.578125
-126.06,1721467301.59375
-105.76,1721467301.609375
-78.68,1721467301.625
-48.54,1721467301.640625
-19.07,1721467301.65625
7.1,1721467301.671875
28.9,1721467301.6875
46.55,1721467301.703125
60.86,1721467301.71875
72.48,1721467301.734375
81.5,1721467301.75
87.67,1721467301.765625
90.71,1721467301.78125
90.77,1721467301.796875
88.57,1721467301.8125
85.15,1721467301.828125
81.57,1721467301.84375
78.49,1721467301.859375
76.09,1721467301.875
74.14,1721467301.890625
72.33,1721467301.90625
70.43,1721467301.921875
68.53,1721467301.9375
66.83,1721467301.953125
65.55,1721467301.96875
64.67,1721467301.984375
63.9,1721467302.0
62.74,1721467302.015625
60.59,1721467302.03125
57.05,1721467302.046875
51.99,1721467302.0625
45.68,1721467302.078125
38.61,1721467302.09375
31.41,1721467302.109375
24.57,1721467302.125
18.28,1721467302.140625
12.44,1721467302.15625
6.62,1721467302.171875
0.26,1721467302.1875
-7.02,1721467302.203125
-15.32,1721467302.21875
-24.3,1721467302.234375
-33.32,1721467302.25
-41.65,1721467302.265625
-48.76,1721467302.28125
-54.56,1721467302.296875
-59.42,1721467302.3125
-64.05,1721467302.328125
-69.29,1721467302.34375
-75.89,1721467302.359375
-84.4,1721467302.375
-95.02,1721467302.390625
-107.4,1721467302.40625
-120.33,1721467302.421875
-131.65,1721467302.4375
-138.55,1721467302.453125
-138.23,1721467302.46875
-128.91,1721467302.484375
-110.65,1721467302.5
-85.45,1721467302.515625
-56.69,1721467302.53125
-28.01,1721467302.546875
-2.17,1721467302.5625
19.45,1721467302.578125
36.8,1721467302.59375
50.48,1721467302.609375
61.13,1721467302.625
69.0,1721467302.640625
74.08,1721467302.65625
76.41,1721467302.671875
76.36,1721467302.6875
74.67,1721467302.703125
72.24,1721467302.71875
69.81,1721467302.734375
67.79,1721467302.75
66.23,1721467302.765625
64.98,1721467302.78125
63.93,1721467302.796875
63.05,1721467302.8125
62.48,1721467302.828125
62.3,1721467302.84375
62.44,1721467302.859375
62.62,1721467302.875
62.39,1721467302.890625
61.36,1721467302.90625
59.27,1721467302.921875
56.13,1721467302.9375
52.14,1721467302.953125
47.6,1721467302.96875
42.72,1721467302.984375
37.64,1721467303.0
32.31,1721467303.015625
26.7,1721467303.03125
20.79,1721467303.046875
14.7,1721467303.0625
8.6,1721467303.078125
2.59,1721467303.09375
-3.29,1721467303.109375
-9.2,1721467303.125
-15.33,1721467303.140625
-21.83,1721467303.15625
-28.65,1721467303.171875
-35.48,1721467303.1875
-41.89,1721467303.203125
-47.51,1721467303.21875
-52.22,1721467303.234375
-56.26,1721467303.25
-60.24,1721467303.265625
-64.93,1721467303.28125
-71.11,1721467303.296875
-79.31,1721467303.3125
-89.53,1721467303.328125
-101.0,1721467303.34375
-112.08,1721467303.359375
-120.35,1721467303.375
-123.17,1721467303.390625
-118.44,1721467303.40625
-105.41,1721467303.421875
-85.08,1721467303.4375
-60.02,1721467303.453125
-33.58,1721467303.46875
-8.81,1721467303.484375
12.33,1721467303.5
29.21,1721467303.515625
42.19,1721467303.53125
52.01,1721467303.546875
59.24,1721467303.5625
64.0,1721467303.578125
66.23,1721467303.59375
65.97,1721467303.609375
63.65,1721467303.625
60.14,1721467303.640625
56.43,1721467303.65625
53.41,1721467303.671875
51.52,1721467303.6875
50.77,1721467303.703125
50.8,1721467303.71875
51.18,1721467303.734375
51.6,1721467303.75
51.97,1721467303.765625
52.32,1721467303.78125
52.64,1721467303.796875
52.8,1721467303.8125
52.5,1721467303.828125
51.46,1721467303.84375
49.52,1721467303.859375
46.7,1721467303.875
43.14,1721467303.890625
38.98,1721467303.90625
34.3,1721467303.921875
29.17,1721467303.9375
23.67,1721467303.953125
18.04,1721467303.96875
12.53,1721467303.984375
7.37,1721467304.0
2.57,1721467304.015625
-2.11,1721467304.03125
-7.05,1721467304.046875
-12.52,1721467304.0625
-18.54,1721467304.078125
-24.81,1721467304.09375
-30.77,1721467304.109375
-35.95,1721467304.125
-40.11,1721467304.140625
-43.44,1721467304.15625
-46.52,1721467304.171875
-50.14,1721467304.1875
-55.13,1721467304.203125
-62.1,1721467304.21875
-71.24,1721467304.234375
-82.1,1721467304.25
-93.46,1721467304.265625
-103.23,1721467304.28125
-108.87,1721467304.296875
-107.99,1721467304.3125
-99.17,1721467304.328125
-82.6,1721467304.34375
-60.2,1721467304.359375
-35.06,1721467304.375
-10.46,1721467304.390625
11.11,1721467304.40625
28.46,1721467304.421875
41.59,1721467304.4375
51.17,1721467304.453125
57.87,1721467304.46875
62.09,1721467304.484375
63.87,1721467304.5
63.29,1721467304.515625
60.67,1721467304.53125
56.68,1721467304.546875
52.23,1721467304.5625
48.22,1721467304.578125
45.25,1721467304.59375
43.5,1721467304.609375
42.76,1721467304.625
42.53,1721467304.640625
42.32,1721467304.65625
41.8,1721467304.671875
40.94,1721467304.6875
39.93,1721467304.703125
38.97,1721467304.71875
38.1,1721467304.734375
37.07,1721467304.75
35.44,1721467304.765625
32.81,1721467304.78125
28.96,1721467304.796875
24.04,1721467304.8125
18.46,1721467304.828125
12.76,1721467304.84375
7.38,1721467304.859375
2.52,1721467304.875
-1.91,1721467304.890625
-6.24,1721467304.90625
-10.88,1721467304.921875
-16.17,1721467304.9375
-22.25,1721467304.953125
-28.94,1721467304.96875
-35.79,1721467304.984375
-42.23,1721467305.0
-47.79,1721467305.015625
-52.25,1721467305.03125
-55.79,1721467305.046875
-58.89,1721467305.0625
-62.32,1721467305.078125
-66.91,1721467305.09375
-73.39,1721467305.109375
-82.15,1721467305.125
-92.87,1721467305.140625
-104.31,1721467305.15625
-114.26,1721467305.171875
-119.87,1721467305.1875
-118.59,1721467305.203125
-108.97,1721467305.21875
-91.39,1721467305.234375
-68.04,1721467305.25
-42.19,1721467305.265625
-17.18,1721467305.28125
4.68,1721467305.296875
22.42,1721467305.3125
36.28,1721467305.328125
47.0,1721467305.34375
55.19,1721467305.359375
61.05,1721467305.375
64.46,1721467305.390625
65.37,1721467305.40625
64.08,1721467305.421875
61.28,1721467305.4375
57.84,1721467305.453125
54.51,1721467305.46875
51.65,1721467305.484375
49.24,1721467305.5
47.01,1721467305.515625
44.76,1721467305.53125
42.45,1721467305.546875
40.31,1721467305.5625
38.66,1721467305.578125
37.66,1721467305.59375
37.18,1721467305.609375
36.73,1721467305.625
35.68,1721467305.640625
33.45,1721467305.65625
29.8,1721467305.671875
24.96,1721467305.6875
19.44,1721467305.703125
13.89,1721467305.71875
8.76,1721467305.734375
4.12,1721467305.75
-0.4,1721467305.765625
-5.38,1721467305.78125
-11.39,1721467305.796875
-18.57,1721467305.8125
-26.61,1721467305.828125
-34.75,1721467305.84375
-42.1,1721467305.859375
-48.05,1721467305.875
-52.52,1721467305.890625
-56.08,1721467305.90625
-59.7,1721467305.921875
-64.48,1721467305.9375
-71.35,1721467305.953125
-80.68,1721467305.96875
-92.13,1721467305.984375
-104.46,1721467306.0
-115.54,1721467306.015625
-122.69,1721467306.03125
-123.34,1721467306.046875
-115.83,1721467306.0625
-100.11,1721467306.078125
-77.88,1721467306.09375
-52.14,1721467306.109375
-26.25,1721467306.125
-2.91,1721467306.140625
16.37,1721467306.15625
31.4,1721467306.171875
42.76,1721467306.1875
51.21,1721467306.203125
57.32,1721467306.21875
61.31,1721467306.234375
63.22,1721467306.25
63.17,1721467306.265625
61.57,1721467306.28125
59.0,1721467306.296875
56.14,1721467306.3125
53.46,1721467306.328125
51.19,1721467306.34375
49.24,1721467306.359375
47.35,1721467306.375
45.34,1721467306.390625
43.24,1721467306.40625
41.31,1721467306.421875
39.88,1721467306.4375
39.1,1721467306.453125
38.74,1721467306.46875
38.2,1721467306.484375
36.73,1721467306.5
33.75,1721467306.515625
29.13,1721467306.53125
23.32,1721467306.546875
17.1,1721467306.5625
11.27,1721467306.578125
6.22,1721467306.59375
1.73,1721467306.609375
-2.92,1721467306.625
-8.63,1721467306.640625
-15.96,1721467306.65625
-24.8,1721467306.671875
-34.37,1721467306.6875
-43.54,1721467306.703125
-51.36,1721467306.71875
-57.5,1721467306.734375
-62.37,1721467306.75
-66.96,1721467306.765625
-72.39,1721467306.78125
-79.54,1721467306.796875
-88.83,1721467306.8125
-100.03,1721467306.828125
-112.1,1721467306.84375
-123.2,1721467306.859375
-130.79,1721467306.875
-132.14,1721467306.890625
-125.15,1721467306.90625
-109.2,1721467306.921875
-85.64,1721467306.9375
-57.51,1721467306.953125
-28.64,1721467306.96875
-2.43,1721467306.984375
19.13,1721467307.0
35.64,1721467307.015625
47.85,1721467307.03125
56.89,1721467307.046875
63.49,1721467307.0625
67.85,1721467307.078125
69.83,1721467307.09375
69.33,1721467307.109375
66.71,1721467307.125
62.66,1721467307.140625
58.11,1721467307.15625
53.82,1721467307.171875
50.23,1721467307.1875
47.4,1721467307.203125
45.13,1721467307.21875
43.17,1721467307.234375
41.34,1721467307.25
39.53,1721467307.265625
37.69,1721467307.28125
35.81,1721467307.296875
33.8,1721467307.3125
31.6,1721467307.328125
29.08,1721467307.34375
26.05,1721467307.359375
22.28,1721467307.375
17.51,1721467307.390625
11.53,1721467307.40625
4.34,1721467307.421875
-3.78,1721467307.4375
-12.36,1721467307.453125
-20.8,1721467307.46875
-28.64,1721467307.484375
-35.7,1721467307.5
-42.17,1721467307.515625
-48.57,1721467307.53125
-55.58,1721467307.546875
-63.93,1721467307.5625
-74.08,1721467307.578125
-85.98,1721467307.59375
-98.69,1721467307.609375
-110.3,1721467307.625
-118.07,1721467307.640625
-119.15,1721467307.65625
-111.48,1721467307.671875
-94.65,1721467307.6875
-70.25,1721467307.703125
-41.47,1721467307.71875
-12.09,1721467307.734375
14.62,1721467307.75
36.72,1721467307.765625
53.68,1721467307.78125
66.06,1721467307.796875
74.75,1721467307.8125
80.44,1721467307.828125
83.49,1721467307.84375
83.99,1721467307.859375
82.07,1721467307.875
78.15,1721467307.890625
72.95,1721467307.90625
67.42,1721467307.921875
62.46,1721467307.9375
58.73,1721467307.953125
56.46,1721467307.96875
55.46,1721467307.984375
55.21,1721467308.0
55.08,1721467308.015625
54.49,1721467308.03125
53.14,1721467308.046875
50.98,1721467308.0625
48.16,1721467308.078125
44.88,1721467308.09375
41.26,1721467308.109375
37.22,1721467308.125
32.55,1721467308.140625
26.99,1721467308.15625
20.35,1721467308.171875
12.64,1721467308.1875
4.11,1721467308.203125
-4.86,1721467308.21875
-13.79,1721467308.234375
-22.32,1721467308.25
-30.29,1721467308.265625
-37.8,1721467308.28125
-45.19,1721467308.296875
-53.04,1721467308.3125
-62.02,1721467308.328125
-72.73,1721467308.34375
-85.32,1721467308.359375
-99.13,1721467308.375
-112.38,1721467308.390625
-122.31,1721467308.40625
-125.8,1721467308.421875
-120.34,1721467308.4375
-105.07,1721467308.453125
-81.29,1721467308.46875
-52.17,1721467308.484375
-21.8,1721467308.5
6.18,1721467308.515625
29.48,1721467308.53125
47.49,1721467308.546875
60.77,1721467308.5625
70.26,1721467308.578125
76.58,1721467308.59375
79.87,1721467308.609375
80.06,1721467308.625
77.32,1721467308.640625
72.36,1721467308.65625
66.34,1721467308.671875
60.55,1721467308.6875
55.94,1721467308.703125
52.81,1721467308.71875
50.86,1721467308.734375
49.45,1721467308.75
47.95,1721467308.765625
46.06,1721467308.78125
43.86,1721467308.796875
41.69,1721467308.8125
39.83,1721467308.828125
38.33,1721467308.84375
36.81,1721467308.859375
34.6,1721467308.875
30.99,1721467308.890625
25.51,1721467308.90625
18.14,1721467308.921875
9.33,1721467308.9375
-0.11,1721467308.953125
-9.33,1721467308.96875
-17.7,1721467308.984375
-25.04,1721467309.0
-31.6,1721467309.015625
-38.0,1721467309.03125
-45.04,1721467309.046875
-53.51,1721467309.0625
-64.05,1721467309.078125
-76.89,1721467309.09375
-91.57,1721467309.109375
-106.6,1721467309.125
-119.47,1721467309.140625
-127.1,1721467309.15625
-126.62,1721467309.171875
-116.46,1721467309.1875
-97.03,1721467309.203125
-70.73,1721467309.21875
-41.22,1721467309.234375
-12.22,1721467309.25
13.5,1721467309.265625
34.64,1721467309.28125
51.15,1721467309.296875
63.63,1721467309.3125
72.74,1721467309.328125
78.86,1721467309.34375
82.2,1721467309.359375
82.96,1721467309.375
81.61,1721467309.390625
78.79,1721467309.40625
75.19,1721467309.421875
71.34,1721467309.4375
67.55,1721467309.453125
63.91,1721467309.46875
60.46,1721467309.484375
57.33,1721467309.5
54.72,1721467309.515625
52.86,1721467309.53125
51.85,1721467309.546875
51.52,1721467309.5625
51.37,1721467309.578125
50.74,1721467309.59375
48.97,1721467309.609375
45.68,1721467309.625
40.91,1721467309.640625
35.1,1721467309.65625
28.87,1721467309.671875
22.69,1721467309.6875
16.66,1721467309.703125
10.48,1721467309.71875
3.64,1721467309.734375
-4.25,1721467309.75
-13.21,1721467309.765625
-22.76,1721467309.78125
-32.11,1721467309.796875
-40.54,1721467309.8125
-47.67,1721467309.828125
-53.73,1721467309.84375
-59.44,1721467309.859375
-65.87,1721467309.875
-74.06,1721467309.890625
-84.64,1721467309.90625
-97.42,1721467309.921875
-111.08,1721467309.9375
-123.15,1721467309.953125
-130.5,1721467309.96875
-130.17,1721467309.984375
-120.43,1721467310.0
-101.58,1721467310.015625
-76.0,1721467310.03125
-47.35,1721467310.046875
-19.37,1721467310.0625
5.31,1721467310.078125
25.76,1721467310.09375
42.36,1721467310.109375
56.1,1721467310.125
67.65,1721467310.140625
76.97,1721467310.15625
83.54,1721467310.171875
86.85,1721467310.1875
86.95,1721467310.203125
84.59,1721467310.21875
80.99,1721467310.234375
77.38,1721467310.25
74.53,1721467310.265625
72.58,1721467310.28125
71.15,1721467310.296875
69.65,1721467310.3125
67.72,1721467310.328125
65.41,1721467310.34375
63.13,1721467310.359375
61.37,1721467310.375
60.33,1721467310.390625
59.71,1721467310.40625
58.71,1721467310.421875
56.45,1721467310.4375
52.32,1721467310.453125
46.29,1721467310.46875
38.96,1721467310.484375
31.26,1721467310.5
24.03,1721467310.515625
17.65,1721467310.53125
11.94,1721467310.546875
6.29,1721467310.5625
-0.0,1721467310.578125
-7.4,1721467310.59375
-15.93,1721467310.609375
-25.19,1721467310.625
-34.47,1721467310.640625
-43.06,1721467310.65625
-50.42,1721467310.671875
-56.37,1721467310.6875
-61.2,1721467310.703125
-65.55,1721467310.71875
-70.31,1721467310.734375
-76.41,1721467310.75
-84.59,1721467310.765625
-95.15,1721467310.78125
-107.61,1721467310.796875
-120.46,1721467310.8125
-131.21,1721467310.828125
-136.89,1721467310.84375
-134.8,1721467310.859375
-123.56,1721467310.875
-103.7,1721467310.890625
-77.58,1721467310.90625
-48.72,1721467310.921875
-20.53,1721467310.9375
4.54,1721467310.953125
25.51,1721467310.96875
42.49,1721467310.984375
56.01,1721467311.0
66.45,1721467311.015625
73.72,1721467311.03125
77.64,1721467311.046875
78.3,1721467311.0625
76.33,1721467311.078125
72.85,1721467311.09375
69.04,1721467311.109375
65.74,1721467311.125
63.26,1721467311.140625
61.42,1721467311.15625
59.89,1721467311.171875
58.46,1721467311.1875
57.19,1721467311.203125
56.32,1721467311.21875
56.04,1721467311.234375
56.24,1721467311.25
56.49,1721467311.265625
56.12,1721467311.28125
54.48,1721467311.296875
51.21,1721467311.3125
46.37,1721467311.328125
40.43,1721467311.34375
34.05,1721467311.359375
27.87,1721467311.375
22.22,1721467311.390625
16.96,1721467311.40625
11.6,1721467311.421875
5.51,1721467311.4375
-1.76,1721467311.453125
-10.15,1721467311.46875
-19.16,1721467311.484375
-27.94,1721467311.5
-35.73,1721467311.515625
-42.14,1721467311.53125
-47.42,1721467311.546875
-52.29,1721467311.5625
-57.84,1721467311.578125
-65.07,1721467311.59375
-74.62,1721467311.609375
-86.31,1721467311.625
-98.87,1721467311.640625
-109.98,1721467311.65625
-116.69,1721467311.671875
-116.23,1721467311.6875
-107.01,1721467311.703125
-89.3,1721467311.71875
-65.26,1721467311.734375
-38.26,1721467311.75
-11.83,1721467311.765625
11.45,1721467311.78125
30.34,1721467311.796875
44.82,1721467311.8125
55.47,1721467311.828125
62.86,1721467311.84375
67.24,1721467311.859375
68.67,1721467311.875
67.35,1721467311.890625
63.85,1721467311.90625
59.09,1721467311.921875
54.14,1721467311.9375
49.8,1721467311.953125
46.49,1721467311.96875
44.16,1721467311.984375
42.54,1721467312.0
41.36,1721467312.015625
40.46,1721467312.03125
39.8,1721467312.046875
39.31,1721467312.0625
38.8,1721467312.078125
37.85,1721467312.09375
36.04,1721467312.109375
33.06,1721467312.125
28.97,1721467312.140625
24.08,1721467312.15625
18.88,1721467312.171875
13.75,1721467312.1875
8.74,1721467312.203125
3.58,1721467312.21875
-2.21,1721467312.234375
-9.01,1721467312.25
-16.9,1721467312.265625
-25.55,1721467312.28125
-34.32,1721467312.296875
-42.51,1721467312.3125
-49.67,1721467312.328125
-55.8,1721467312.34375
-61.39,1721467312.359375
-67.29,1721467312.375
-74.51,1721467312.390625
-83.82,1721467312.40625
-95.32,1721467312.421875
-108.06,1721467312.4375
-119.95,1721467312.453125
-128.03,1721467312.46875
-129.34,1721467312.484375
-121.88,1721467312.5
-105.43,1721467312.515625
-81.77,1721467312.53125
-54.14,1721467312.546875
-26.22,1721467312.5625
-0.97,1721467312.578125
19.98,1721467312.59375
36.37,1721467312.609375
48.77,1721467312.625
57.9,1721467312.640625
64.2,1721467312.65625
67.73,1721467312.671875
68.48,1721467312.6875
66.68,1721467312.703125
63.0,1721467312.71875
58.39,1721467312.734375
53.88,1721467312.75
50.24,1721467312.765625
47.76,1721467312.78125
46.28,1721467312.796875
45.38,1721467312.8125
44.52,1721467312.828125
43.34,1721467312.84375
41.72,1721467312.859375
39.77,1721467312.875
37.69,1721467312.890625
35.64,1721467312.90625
33.59,1721467312.921875
31.33,1721467312.9375
28.54,1721467312.953125
24.85,1721467312.96875
20.0,1721467312.984375
13.91,1721467313.0
6.66,1721467313.015625
-1.5,1721467313.03125
-10.27,1721467313.046875
-19.31,1721467313.0625
-28.27,1721467313.078125
-36.88,1721467313.09375
-44.97,1721467313.109375
-52.5,1721467313.125
-59.72,1721467313.140625
-67.18,1721467313.15625
-75.69,1721467313.171875
-85.98,1721467313.1875
-98.18,1721467313.203125
-111.3,1721467313.21875
-123.09,1721467313.234375
-130.4,1721467313.25
-130.21,1721467313.265625
-120.77,1721467313.28125
-102.39,1721467313.296875
-77.46,1721467313.3125
-49.63,1721467313.328125
-22.51,1721467313.34375
1.34,1721467313.359375
20.94,1721467313.375
36.52,1721467313.390625
48.83,1721467313.40625
58.45,1721467313.421875
65.51,1721467313.4375
69.87,1721467313.453125
71.47,1721467313.46875
70.58,1721467313.484375
67.87,1721467313.5
64.19,1721467313.515625
60.31,1721467313.53125
56.79,1721467313.546875
53.88,1721467313.5625
51.59,1721467313.578125
49.87,1721467313.59375
48.62,1721467313.609375
47.73,1721467313.625
47.02,1721467313.640625
46.21,1721467313.65625
44.91,1721467313.671875
42.78,1721467313.6875
39.59,1721467313.703125
35.35,1721467313.71875
30.3,1721467313.734375
24.69,1721467313.75
18.72,1721467313.765625
12.33,1721467313.78125
5.3,1721467313.796875
-2.59,1721467313.8125
-11.31,1721467313.828125
-20.55,1721467313.84375
-29.75,1721467313.859375
-38.37,1721467313.875
-46.09,1721467313.890625
-53.01,1721467313.90625
-59.57,1721467313.921875
-66.51,1721467313.9375
-74.6,1721467313.953125
-84.5,1721467313.96875
-96.36,1721467313.984375
-109.43,1721467314.0
-121.86,1721467314.015625
-130.86,1721467314.03125
-133.39,1721467314.046875
-127.14,1721467314.0625
-111.54,1721467314.078125
-88.07,1721467314.09375
-59.9,1721467314.109375
-30.74,1721467314.125
-3.68,1721467314.140625
19.53,1721467314.15625
38.55,1721467314.171875
53.81,1721467314.1875
65.86,1721467314.203125
74.87,1721467314.21875
80.7,1721467314.234375
83.24,1721467314.25
82.75,1721467314.265625
79.92,1721467314.28125
75.72,1721467314.296875
71.06,1721467314.3125
66.57,1721467314.328125
62.57,1721467314.34375
59.15,1721467314.359375
56.34,1721467314.375
54.24,1721467314.390625
52.99,1721467314.40625
52.59,1721467314.421875
52.85,1721467314.4375
53.25,1721467314.453125
53.07,1721467314.46875
51.61,1721467314.484375
48.48,1721467314.5
43.77,1721467314.515625
37.99,1721467314.53125
31.85,1721467314.546875
25.86,1721467314.5625
20.15,1721467314.578125
14.37,1721467314.59375
7.99,1721467314.609375
0.54,1721467314.625
-8.03,1721467314.640625
-17.35,1721467314.65625
-26.73,1721467314.671875
-35.48,1721467314.6875
-43.12,1721467314.703125
-49.6,1721467314.71875
-55.37,1721467314.734375
-61.27,1721467314.75
-68.37,1721467314.765625
-77.58,1721467314.78125
-89.22,1721467314.796875
-102.55,1721467314.8125
-115.58,1721467314.828125
-125.35,1721467314.84375
-128.69,1721467314.859375
-123.22,1721467314.875
-108.23,1721467314.890625
-85.05,1721467314.90625
-56.65,1721467314.921875
-26.67,1721467314.9375
1.59,1721467314.953125
26.01,1721467314.96875
45.76,1721467314.984375
60.97,1721467315.0
72.12,1721467315.015625
79.6,1721467315.03125
83.61,1721467315.046875
84.34,1721467315.0625
82.23,1721467315.078125
78.05,1721467315.09375
72.85,1721467315.109375
67.65,1721467315.125
63.2,1721467315.140625
59.89,1721467315.15625
57.72,1721467315.171875
56.5,1721467315.1875
55.92,1721467315.203125
55.68,1721467315.21875
55.44,1721467315.234375
54.87,1721467315.25
53.61,1721467315.265625
51.36,1721467315.28125
47.97,1721467315.296875
43.51,1721467315.3125
38.23,1721467315.328125
32.44,1721467315.34375
26.35,1721467315.359375
19.96,1721467315.375
13.05,1721467315.390625
5.41,1721467315.40625
-3.06,1721467315.421875
-12.19,1721467315.4375
-21.52,1721467315.453125
-30.5,1721467315.46875
-38.7,1721467315.484375
-46.03,1721467315.5
-52.83,1721467315.515625
-59.81,1721467315.53125
-67.9,1721467315.546875
-77.95,1721467315.5625
-90.28,1721467315.578125
-104.34,1721467315.59375
-118.38,1721467315.609375
-129.6,1721467315.625
-134.82,1721467315.640625
-131.4,1721467315.65625
-118.29,1721467315.671875
-96.45,1721467315.6875
-68.65,1721467315.703125
-38.58,1721467315.71875
-9.62,1721467315.734375
15.93,1721467315.75
37.15,1721467315.765625
54.15,1721467315.78125
67.4,1721467315.796875
77.23,1721467315.8125
83.74,1721467315.828125
86.97,1721467315.84375
87.18,1721467315.859375
85.07,1721467315.875
81.58,1721467315.890625
77.64,1721467315.90625
73.92,1721467315.921875
70.65,1721467315.9375
67.77,1721467315.953125
65.17,1721467315.96875
62.9,1721467315.984375
61.14,1721467316.0
60.16,1721467316.015625
59.98,1721467316.03125
60.2,1721467316.046875
60.06,1721467316.0625
58.65,1721467316.078125
55.3,1721467316.09375
49.89,1721467316.109375
42.91,1721467316.125
35.26,1721467316.140625
27.81,1721467316.15625
21.06,1721467316.171875
14.89,1721467316.1875
8.73,1721467316.203125
1.81,1721467316.21875
-6.41,1721467316.234375
-15.96,1721467316.25
-26.36,1721467316.265625
-36.77,1721467316.28125
-46.41,1721467316.296875
-54.83,1721467316.3125
-62.11,1721467316.328125
-68.82,1721467316.34375
-75.86,1721467316.359375
-84.22,1721467316.375
-94.67,1721467316.390625
-107.38,1721467316.40625
-121.55,1721467316.421875
-135.17,1721467316.4375
-145.31,1721467316.453125
-148.72,1721467316.46875
-142.94,1721467316.484375
-127.25,1721467316.5
-103.06,1721467316.515625
-73.52,1721467316.53125
-42.53,1721467316.546875
-13.43,1721467316.5625
11.72,1721467316.578125
32.35,1721467316.59375
48.82,1721467316.609375
61.83,1721467316.625
71.76,1721467316.640625
78.69,1721467316.65625
82.54,1721467316.671875
83.47,1721467316.6875
81.98,1721467316.703125
78.89,1721467316.71875
75.08,1721467316.734375
71.24,1721467316.75
67.83,1721467316.765625
64.94,1721467316.78125
62.57,1721467316.796875
60.64,1721467316.8125
59.07,1721467316.828125
57.74,1721467316.84375
56.42,1721467316.859375
54.81,1721467316.875
52.58,1721467316.890625
49.55,1721467316.90625
45.66,1721467316.921875
41.03,1721467316.9375
35.8,1721467316.953125
29.97,1721467316.96875
23.44,1721467316.984375
16.03,1721467317.0
7.7,1721467317.015625
-1.39,1721467317.03125
-10.82,1721467317.046875
-20.1,1721467317.0625
-28.84,1721467317.078125
-36.94,1721467317.09375
-44.62,1721467317.109375
-52.35,1721467317.125
-60.73,1721467317.140625
-70.33,1721467317.15625
-81.54,1721467317.171875
-94.23,1721467317.1875
-107.55,1721467317.203125
-119.64,1721467317.21875
-127.9,1721467317.234375
-129.57,1721467317.25
-122.7,1721467317.265625
-106.95,1721467317.28125
-83.87,1721467317.296875
-56.49,1721467317.3125
-28.29,1721467317.328125
-2.14,1721467317.34375
20.34,1721467317.359375
38.76,1721467317.375
53.42,1721467317.390625
64.7,1721467317.40625
72.66,1721467317.421875
77.14,1721467317.4375
78.16,1721467317.453125
76.18,1721467317.46875
72.18,1721467317.484375
67.35,1721467317.5
62.72,1721467317.515625
58.79,1721467317.53125
55.5,1721467317.546875
52.48,1721467317.5625
49.33,1721467317.578125
45.95,1721467317.59375
42.59,1721467317.609375
39.71,1721467317.625
37.65,1721467317.640625
36.41,1721467317.65625
35.43,1721467317.671875
33.81,1721467317.6875
30.61,1721467317.703125
25.26,1721467317.71875
17.84,1721467317.734375
9.1,1721467317.75
0.15,1721467317.765625
-8.0,1721467317.78125
-14.83,1721467317.796875
-20.57,1721467317.8125
-25.98,1721467317.828125
-32.13,1721467317.84375
-39.97,1721467317.859375
-50.09,1721467317.875
-62.44,1721467317.890625
-76.24,1721467317.90625
-89.8,1721467317.921875
-100.73,1721467317.9375
-106.32,1721467317.953125
-104.26,1721467317.96875
-93.48,1721467317.984375
-74.67,1721467318.0
-50.19,1721467318.015625
-23.38,1721467318.03125
2.45,1721467318.046875
24.97,1721467318.0625
43.18,1721467318.078125
57.19,1721467318.09375
67.54,1721467318.109375
74.68,1721467318.125
78.67,1721467318.140625
79.43,1721467318.15625
77.08,1721467318.171875
72.24,1721467318.1875
66.06,1721467318.203125
59.86,1721467318.21875
54.76,1721467318.234375
51.3,1721467318.25
49.36,1721467318.265625
48.35,1721467318.28125
47.54,1721467318.296875
46.37,1721467318.3125
44.67,1721467318.328125
42.63,1721467318.34375
40.58,1721467318.359375
38.73,1721467318.375
36.99,1721467318.390625
34.9,1721467318.40625
31.84,1721467318.421875
27.25,1721467318.4375
20.89,1721467318.453125
13.0,1721467318.46875
4.2,1721467318.484375
-4.7,1721467318.5
-13.0,1721467318.515625
-20.32,1721467318.53125
-26.64,1721467318.546875
-32.39,1721467318.5625
-38.2,1721467318.578125
-44.78,1721467318.59375
-52.85,1721467318.609375
-62.88,1721467318.625
-74.93,1721467318.640625
-88.35,1721467318.65625
-101.56,1721467318.671875
-112.12,1721467318.6875
-117.2,1721467318.703125
-114.42,1721467318.71875
-102.7,1721467318.734375
-82.82,1721467318.75
-57.25,1721467318.765625
-29.44,1721467318.78125
-2.69,1721467318.796875
20.65,1721467318.8125
39.53,1721467318.828125
54.03,1721467318.84375
64.73,1721467318.859375
72.17,1721467318.875
76.61,1721467318.890625
78.14,1721467318.90625
76.96,1721467318.921875
73.62,1721467318.9375
69.02,1721467318.953125
64.21,1721467318.96875
60.02,1721467318.984375
56.84,1721467319.0
54.56,1721467319.015625
52.82,1721467319.03125
51.28,1721467319.046875
49.87,1721467319.0625
48.78,1721467319.078125
48.23,1721467319.09375
48.14,1721467319.109375
47.97,1721467319.125
46.85,1721467319.140625
43.94,1721467319.15625
38.87,1721467319.171875
32.01,1721467319.1875
24.35,1721467319.203125
17.05,1721467319.21875
10.98,1721467319.234375
6.22,1721467319.25
2.13,1721467319.265625
-2.37,1721467319.28125
-8.27,1721467319.296875
-15.97,1721467319.3125
-25.18,1721467319.328125
-34.97,1721467319.34375
-44.23,1721467319.359375
-52.21,1721467319.375
-58.72,1721467319.390625
-64.25,1721467319.40625
-69.74,1721467319.421875
-76.24,1721467319.4375
-84.62,1721467319.453125
-95.25,1721467319.46875
-107.73,1721467319.484375
-120.68,1721467319.5
-131.74,1721467319.515625
-138.02,1721467319.53125
-136.76,1721467319.546875
-126.33,1721467319.5625
-106.94,1721467319.578125
-80.75,1721467319.59375
-51.27,1721467319.609375
-22.19,1721467319.625
3.67,1721467319.640625
25.01,1721467319.65625
41.86,1721467319.671875
54.97,1721467319.6875
65.05,1721467319.703125
72.38,1721467319.71875
76.96,1721467319.734375
78.78,1721467319.75
78.21,1721467319.765625
76.03,1721467319.78125
73.13,1721467319.796875
70.23,1721467319.8125
67.68,1721467319.828125
65.43,1721467319.84375
63.35,1721467319.859375
61.4,1721467319.875
59.74,1721467319.890625
58.61,1721467319.90625
58.14,1721467319.921875
58.13,1721467319.9375
58.08,1721467319.953125
57.4,1721467319.96875
55.61,1721467319.984375
52.59,1721467320.0
48.58,1721467320.015625
44.03,1721467320.03125
39.36,1721467320.046875
34.73,1721467320.0625
30.03,1721467320.078125
25.01,1721467320.09375
19.42,1721467320.109375
13.24,1721467320.125
6.68,1721467320.140625
0.13,1721467320.15625
-6.08,1721467320.171875
-11.78,1721467320.1875
-17.09,1721467320.203125
-22.34,1721467320.21875
-27.94,1721467320.234375
-34.13,1721467320.25
-40.89,1721467320.265625
-47.89,1721467320.28125
-54.62,1721467320.296875
-60.6,1721467320.3125
-65.6,1721467320.328125
-69.82,1721467320.34375
-73.93,1721467320.359375
-78.92,1721467320.375
-85.83,1721467320.390625
-95.33,1721467320.40625
-107.3,1721467320.421875
-120.42,1721467320.4375
-132.21,1721467320.453125
-139.42,1721467320.46875
-139.06,1721467320.484375
-129.3,1721467320.5
-110.36,1721467320.515625
-84.43,1721467320.53125
-55.11,1721467320.546875
-26.11,1721467320.5625
-0.23,1721467320.578125
21.21,1721467320.59375
38.17,1721467320.609375
51.3,1721467320.625
61.24,1721467320.640625
68.28,1721467320.65625
72.39,1721467320.671875
73.6,1721467320.6875
72.29,1721467320.703125
69.28,1721467320.71875
65.53,1721467320.734375
61.9,1721467320.75
58.87,1721467320.765625
56.56,1721467320.78125
54.86,1721467320.796875
53.63,1721467320.8125
52.87,1721467320.828125
52.6,1721467320.84375
52.81,1721467320.859375
53.29,1721467320.875
53.68,1721467320.890625
53.51,1721467320.90625
52.44,1721467320.921875
50.32,1721467320.9375
47.29,1721467320.953125
43.61,1721467320.96875
39.55,1721467320.984375
35.3,1721467321.0
30.87,1721467321.015625
26.18,1721467321.03125
21.14,1721467321.046875
15.73,1721467321.0625
10.02,1721467321.078125
4.18,1721467321.09375
-1.66,1721467321.109375
-7.43,1721467321.125
-13.2,1721467321.140625
-19.1,1721467321.15625
-25.21,1721467321.171875
-31.51,1721467321.1875
-37.84,1721467321.203125
-43.91,1721467321.21875
-49.49,1721467321.234375
-54.47,1721467321.25
-59.02,1721467321.265625
-63.58,1721467321.28125
-68.83,1721467321.296875
-75.56,1721467321.3125
-84.32,1721467321.328125
-95.03,1721467321.34375
-106.68,1721467321.359375
-117.21,1721467321.375
-123.82,1721467321.390625
-123.81,1721467321.40625
-115.38,1721467321.421875
-98.44,1721467321.4375
-74.72,1721467321.453125
-47.29,1721467321.46875
-19.59,1721467321.484375
5.48,1721467321.5
26.25,1721467321.515625
42.29,1721467321.53125
53.97,1721467321.546875
62.0,1721467321.5625
66.91,1721467321.578125
69.02,1721467321.59375
68.56,1721467321.609375
65.93,1721467321.625
61.82,1721467321.640625
57.16,1721467321.65625
52.85,1721467321.671875
49.55,1721467321.6875
47.48,1721467321.703125
46.46,1721467321.71875
46.04,1721467321.734375
45.76,1721467321.75
45.37,1721467321.765625
44.85,1721467321.78125
44.36,1721467321.796875
44.06,1721467321.8125
43.94,1721467321.828125
43.72,1721467321.84375
42.91,1721467321.859375
41.04,1721467321.875
37.8,1721467321.890625
33.29,1721467321.90625
27.97,1721467321.921875
22.53,1721467321.9375
17.54,1721467321.953125
13.24,1721467321.96875
9.44,1721467321.984375
5.57,1721467322.0
1.0,1721467322.015625
-4.68,1721467322.03125
-11.48,1721467322.046875
-18.99,1721467322.0625
-26.54,1721467322.078125
-33.41,1721467322.09375
-39.16,1721467322.109375
-43.7,1721467322.125
-47.31,1721467322.140625
-50.61,1721467322.15625
-54.41,1721467322.171875
-59.54,1721467322.1875
-66.67,1721467322.203125
-75.99,1721467322.21875
-86.97,1721467322.234375
-98.07,1721467322.25
-106.8,1721467322.265625
-110.23,1721467322.28125
-105.85,1721467322.296875
-92.52,1721467322.3125
-71.1,1721467322.328125
-44.32,1721467322.34375
-15.92,1721467322.359375
10.47,1721467322.375
32.43,1721467322.390625
49.08,1721467322.40625
60.76,1721467322.421875
68.33,1721467322.4375
72.55,1721467322.453125
73.81,1721467322.46875
72.3,1721467322.484375
68.38,1721467322.5
62.81,1721467322.515625
56.64,1721467322.53125
50.93,1721467322.546875
46.44,1721467322.5625
43.38,1721467322.578125
41.5,1721467322.59375
40.29,1721467322.609375
39.31,1721467322.625
38.33,1721467322.640625
37.42,1721467322.65625
36.8,1721467322.671875
36.63,1721467322.6875
36.78,1721467322.703125
36.83,1721467322.71875
36.12,1721467322.734375
34.05,1721467322.75
30.33,1721467322.765625
25.16,1721467322.78125
19.2,1721467322.796875
13.27,1721467322.8125
7.98,1721467322.828125
3.5,1721467322.84375
-0.58,1721467322.859375
-5.02,1721467322.875
-10.58,1721467322.890625
-17.63,1721467322.90625
-25.97,1721467322.921875
-34.9,1721467322.9375
-43.48,1721467322.953125
-50.9,1721467322.96875
-56.84,1721467322.984375
-61.54,1721467323.0
-65.71,1721467323.015625
-70.26,1721467323.03125
-76.12,1721467323.046875
-83.93,1721467323.0625
-93.79,1721467323.078125
-105.02,1721467323.09375
-115.93,1721467323.109375
-123.93,1721467323.125
-126.11,1721467323.140625
-120.09,1721467323.15625
-105.0,1721467323.171875
-81.93,1721467323.1875
-53.75,1721467323.203125
-24.22,1721467323.21875
3.12,1721467323.234375
25.91,1721467323.25
43.28,1721467323.265625
55.58,1721467323.28125
63.74,1721467323.296875
68.67,1721467323.3125
70.98,1721467323.328125
71.04,1721467323.34375
69.16,1721467323.359375
65.77,1721467323.375
61.43,1721467323.390625
56.76,1721467323.40625
52.31,1721467323.421875
48.41,1721467323.4375
45.16,1721467323.453125
42.56,1721467323.46875
40.53,1721467323.484375
39.1,1721467323.5
38.3,1721467323.515625
38.13,1721467323.53125
38.36,1721467323.546875
38.49,1721467323.5625
37.86,1721467323.578125
35.88,1721467323.59375
32.3,1721467323.609375
27.33,1721467323.625
21.61,1721467323.640625
15.89,1721467323.65625
10.67,1721467323.671875
5.97,1721467323.6875
1.33,1721467323.703125
-3.93,1721467323.71875
-10.34,1721467323.734375
-17.94,1721467323.75
-26.27,1721467323.765625
-34.55,1721467323.78125
-42.03,1721467323.796875
-48.33,1721467323.8125
-53.59,1721467323.828125
-58.45,1721467323.84375
-63.89,1721467323.859375
-70.9,1721467323.875
-80.11,1721467323.890625
-91.4,1721467323.90625
-103.62,1721467323.921875
-114.44,1721467323.9375
-120.84,1721467323.953125
-119.89,1721467323.96875
-109.82,1721467323.984375
-90.75,1721467324.0
-64.79,1721467324.015625
-35.46,1721467324.03125
-6.57,1721467324.046875
18.89,1721467324.0625
39.34,1721467324.078125
54.54,1721467324.09375
65.08,1721467324.109375
71.77,1721467324.125
75.23,1721467324.140625
75.91,1721467324.15625
74.24,1721467324.171875
70.82,1721467324.1875
66.42,1721467324.203125
61.9,1721467324.21875
57.88,1721467324.234375
54.61,1721467324.25
51.97,1721467324.265625
49.62,1721467324.28125
47.28,1721467324.296875
44.86,1721467324.3125
42.67,1721467324.328125
41.11,1721467324.34375
40.46,1721467324.359375
40.6,1721467324.375
40.89,1721467324.390625
40.39,1721467324.40625
38.25,1721467324.421875
34.05,1721467324.4375
28.09,1721467324.453125
21.24,1721467324.46875
14.52,1721467324.484375
8.67,1721467324.5
3.82,1721467324.515625
-0.52,1721467324.53125
-5.21,1721467324.546875
-11.01,1721467324.5625
-18.25,1721467324.578125
-26.64,1721467324.59375
-35.4,1721467324.609375
-43.62,1721467324.625
-50.64,1721467324.640625
-56.33,1721467324.65625
-61.15,1721467324.671875
-65.96,1721467324.6875
-71.79,1721467324.703125
-79.48,1721467324.71875
-89.34,1721467324.734375
-100.84,1721467324.75
-112.42,1721467324.765625
-121.57,1721467324.78125
-125.3,1721467324.796875
-121.04,1721467324.8125
-107.53,1721467324.828125
-85.49,1721467324.84375
-57.54,1721467324.859375
-27.48,1721467324.875
0.92,1721467324.890625
24.99,1721467324.90625
43.56,1721467324.921875
56.82,1721467324.9375
65.54,1721467324.953125
70.53,1721467324.96875
72.31,1721467324.984375
71.21,1721467325.0
67.73,1721467325.015625
62.71,1721467325.03125
57.21,1721467325.046875
52.23,1721467325.0625
48.4,1721467325.078125
45.79,1721467325.09375
44.06,1721467325.109375
42.74,1721467325.125
41.54,1721467325.140625
40.51,1721467325.15625
39.88,1721467325.171875
39.84,1721467325.1875
40.25,1721467325.203125
40.61,1721467325.21875
40.2,1721467325.234375
38.4,1721467325.25
35.03,1721467325.265625
30.44,1721467325.28125
25.35,1721467325.296875
20.5,1721467325.3125
16.22,1721467325.328125
12.31,1721467325.34375
8.1,1721467325.359375
2.83,1721467325.375
-3.95,1721467325.390625
-12.1,1721467325.40625
-20.94,1721467325.421875
-29.52,1721467325.4375
-37.04,1721467325.453125
-43.16,1721467325.46875
-48.15,1721467325.484375
-52.83,1721467325.5
-58.29,1721467325.515625
-65.54,1721467325.53125
-75.14,1721467325.546875
-86.75,1721467325.5625
-98.97,1721467325.578125
-109.29,1721467325.59375
-114.64,1721467325.609375
-112.21,1721467325.625
-100.47,1721467325.640625
-79.81,1721467325.65625
-52.64,1721467325.671875
-22.65,1721467325.6875
6.26,1721467325.703125
31.1,1721467325.71875
50.35,1721467325.734375
63.92,1721467325.75
72.57,1721467325.765625
77.21,1721467325.78125
78.53,1721467325.796875
76.94,1721467325.8125
72.82,1721467325.828125
66.8,1721467325.84375
59.82,1721467325.859375
52.96,1721467325.875
47.16,1721467325.890625
42.99,1721467325.90625
40.48,1721467325.921875
39.28,1721467325.9375
38.84,1721467325.953125
38.61,1721467325.96875
38.16,1721467325.984375
37.23,1721467326.0
35.72,1721467326.015625
33.63,1721467326.03125
30.98,1721467326.046875
27.81,1721467326.0625
24.07,1721467326.078125
19.66,1721467326.09375
14.4,1721467326.109375
8.16,1721467326.125
0.92,1721467326.140625
-7.15,1721467326.15625
-15.68,1721467326.171875
-24.21,1721467326.1875
-32.32,1721467326.203125
-39.69,1721467326.21875
-46.33,1721467326.234375
-52.47,1721467326.25
-58.61,1721467326.265625
-65.45,1721467326.28125
-73.74,1721467326.296875
-84.04,1721467326.3125
-96.32,1721467326.328125
-109.51,1721467326.34375
-121.37,1721467326.359375
-128.84,1721467326.375
-128.81,1721467326.390625
-119.23,1721467326.40625
-100.02,1721467326.421875
-73.25,1721467326.4375
-42.62,1721467326.453125
-12.24,1721467326.46875
14.56,1721467326.484375
36.01,1721467326.5
51.92,1721467326.515625
63.07,1721467326.53125
70.48,1721467326.546875
74.91,1721467326.5625
76.69,1721467326.578125
76.04,1721467326.59375
73.27,1721467326.609375
68.97,1721467326.625
63.92,1721467326.640625
58.89,1721467326.65625
54.47,1721467326.671875
50.97,1721467326.6875
48.43,1721467326.703125
46.64,1721467326.71875
45.26,1721467326.734375
43.88,1721467326.75
42.21,1721467326.765625
40.11,1721467326.78125
37.67,1721467326.796875
35.1,1721467326.8125
32.54,1721467326.828125
29.89,1721467326.84375
26.72,1721467326.859375
22.45,1721467326.875
16.57,1721467326.890625
8.97,1721467326.90625
0.07,1721467326.921875
-9.32,1721467326.9375
-18.33,1721467326.953125
-26.43,1721467326.96875
-33.54,1721467326.984375
-40.09,1721467327.0
-46.75,1721467327.015625
-54.23,1721467327.03125
-63.1,1721467327.046875
-73.77,1721467327.0625
-86.26,1721467327.078125
-100.02,1721467327.09375
-113.57,1721467327.109375
-124.45,1721467327.125
-129.58,1721467327.140625
-126.2,1721467327.15625
-112.92,1721467327.171875
-90.45,1721467327.1875
-61.62,1721467327.203125
-30.45,1721467327.21875
-0.94,1721467327.234375
24.09,1721467327.25
43.52,1721467327.265625
57.64,1721467327.28125
67.41,1721467327.296875
73.77,1721467327.3125
77.29,1721467327.328125
78.23,1721467327.34375
76.86,1721467327.359375
73.64,1721467327.375
69.27,1721467327.390625
64.54,1721467327.40625
60.1,1721467327.421875
56.32,1721467327.4375
53.3,1721467327.453125
50.94,1721467327.46875
49.11,1721467327.484375
47.68,1721467327.5
46.54,1721467327.515625
45.57,1721467327.53125
44.57,1721467327.546875
43.27,1721467327.5625
41.41,1721467327.578125
38.78,1721467327.59375
35.3,1721467327.609375
31.03,1721467327.625
26.05,1721467327.640625
20.41,1721467327.65625
14.05,1721467327.671875
6.91,1721467327.6875
-1.06,1721467327.703125
-9.69,1721467327.71875
-18.59,1721467327.734375
-27.26,1721467327.75
-35.32,1721467327.765625
-42.58,1721467327.78125
-49.25,1721467327.796875
-55.82,1721467327.8125
-63.03,1721467327.828125
-71.64,1721467327.84375
-82.24,1721467327.859375
-94.83,1721467327.875
-108.51,1721467327.890625
-121.19,1721467327.90625
-129.81,1721467327.921875
-131.08,1721467327.9375
-122.58,1721467327.953125
-103.85,1721467327.96875
-76.71,1721467327.984375
-44.88,1721467328.0
-12.75,1721467328.015625
15.93,1721467328.03125
39.0,1721467328.046875
55.99,1721467328.0625
67.63,1721467328.078125
74.99,1721467328.09375
78.96,1721467328.109375
80.06,1721467328.125
78.6,1721467328.140625
75.05,1721467328.15625
70.15,1721467328.171875
64.86,1721467328.1875
60.04,1721467328.203125
56.3,1721467328.21875
53.82,1721467328.234375
52.4,1721467328.25
51.71,1721467328.265625
51.44,1721467328.28125
51.39,1721467328.296875
51.46,1721467328.3125
51.5,1721467328.328125
51.25,1721467328.34375
50.3,1721467328.359375
48.3,1721467328.375
45.12,1721467328.390625
40.85,1721467328.40625
35.8,1721467328.421875
30.29,1721467328.4375
24.46,1721467328.453125
18.23,1721467328.46875
11.36,1721467328.484375
3.67,1721467328.5
-4.79,1721467328.515625
-13.69,1721467328.53125
-22.48,1721467328.546875
-30.64,1721467328.5625
-37.89,1721467328.578125
-44.31,1721467328.59375
-50.45,1721467328.609375
-57.26,1721467328.625
-65.73,1721467328.640625
-76.61,1721467328.65625
-89.74,1721467328.671875
-103.71,1721467328.6875
-115.79,1721467328.703125
-122.48,1721467328.71875
-120.58,1721467328.734375
-108.34,1721467328.75
-86.28,1721467328.765625
-57.2,1721467328.78125
-25.26,1721467328.796875
5.29,1721467328.8125
31.34,1721467328.828125
51.51,1721467328.84375
65.95,1721467328.859375
75.55,1721467328.875
81.25,1721467328.890625
83.6,1721467328.90625
82.86,1721467328.921875
79.35,1721467328.9375
73.8,1721467328.953125
67.37,1721467328.96875
61.3,1721467328.984375
56.58,1721467329.0
53.58,1721467329.015625
52.05,1721467329.03125
51.41,1721467329.046875
51.15,1721467329.0625
51.01,1721467329.078125
51.08,1721467329.09375
51.45,1721467329.109375
51.95,1721467329.125
52.06,1721467329.140625
50.99,1721467329.15625
48.09,1721467329.171875
43.19,1721467329.1875
36.75,1721467329.203125
29.68,1721467329.21875
22.88,1721467329.234375
16.81,1721467329.25
11.23,1721467329.265625
5.39,1721467329.28125
-1.61,1721467329.296875
-10.28,1721467329.3125
-20.47,1721467329.328125
-31.41,1721467329.34375
-42.03,1721467329.359375
-51.4,1721467329.375
-59.22,1721467329.390625
-65.82,1721467329.40625
-72.11,1721467329.421875
-79.24,1721467329.4375
-88.28,1721467329.453125
-99.82,1721467329.46875
-113.63,1721467329.484375
-128.34,1721467329.5
-141.34,1721467329.515625
-149.16,1721467329.53125
-148.42,1721467329.546875
-136.96,1721467329.5625
-114.87,1721467329.578125
-84.65,1721467329.59375
-50.53,1721467329.609375
-17.08,1721467329.625
12.22,1721467329.640625
35.77,1721467329.65625
53.71,1721467329.671875
67.1,1721467329.6875
76.97,1721467329.703125
83.81,1721467329.71875
87.56,1721467329.734375
88.15,1721467329.75
85.92,1721467329.765625
81.81,1721467329.78125
77.11,1721467329.796875
72.97,1721467329.8125
70.03,1721467329.828125
68.21,1721467329.84375
66.96,1721467329.859375
65.66,1721467329.875
63.99,1721467329.890625
62.12,1721467329.90625
60.56,1721467329.921875
59.77,1721467329.9375
59.86,1721467329.953125
60.38,1721467329.96875
60.48,1721467329.984375
59.25,1721467330.0
56.09,1721467330.015625
50.95,1721467330.03125
44.31,1721467330.046875
36.96,1721467330.0625
29.69,1721467330.078125
23.01,1721467330.09375
17.04,1721467330.109375
11.51,1721467330.125
5.86,1721467330.140625
-0.48,1721467330.15625
-7.96,1721467330.171875
-16.62,1721467330.1875
-26.15,1721467330.203125
-35.87,1721467330.21875
-44.98,1721467330.234375
-52.91,1721467330.25
-59.45,1721467330.265625
-64.95,1721467330.28125
-70.16,1721467330.296875
-76.12,1721467330.3125
-83.87,1721467330.328125
-94.11,1721467330.34375
-106.88,1721467330.359375
-121.14,1721467330.375
-134.68,1721467330.390625
-144.23,1721467330.40625
-146.32,1721467330.421875
-138.31,1721467330.4375
-119.52,1721467330.453125
-91.65,1721467330.46875
-58.45,1721467330.484375
-24.53,1721467330.5
6.1,1721467330.515625
31.08,1721467330.53125
49.93,1721467330.546875
63.52,1721467330.5625
73.09,1721467330.578125
79.53,1721467330.59375
83.09,1721467330.609375
83.72,1721467330.625
81.57,1721467330.640625
77.32,1721467330.65625
72.12,1721467330.671875
67.23,1721467330.6875
63.54,1721467330.703125
61.3,1721467330.71875
60.09,1721467330.734375
59.21,1721467330.75
58.1,1721467330.765625
56.59,1721467330.78125
55.0,1721467330.796875
53.83,1721467330.8125
53.41,1721467330.828125
53.64,1721467330.84375
53.92,1721467330.859375
53.37,1721467330.875
51.17,1721467330.890625
46.96,1721467330.90625
40.96,1721467330.921875
33.92,1721467330.9375
26.82,1721467330.953125
20.45,1721467330.96875
15.16,1721467330.984375
10.67,1721467331.0
6.27,1721467331.015625
1.13,1721467331.03125
-5.38,1721467331.046875
-13.4,1721467331.0625
-22.59,1721467331.078125
-32.16,1721467331.09375
-41.27,1721467331.109375
-49.25,1721467331.125
-55.85,1721467331.140625
-61.35,1721467331.15625
-66.41,1721467331.171875
-71.98,1721467331.1875
-79.03,1721467331.203125
-88.23,1721467331.21875
-99.57,1721467331.234375
-112.02,1721467331.25
-123.39,1721467331.265625
-130.61,1721467331.28125
-130.53,1721467331.296875
-120.99,1721467331.3125
-101.72,1721467331.328125
-74.59,1721467331.34375
-43.15,1721467331.359375
-11.51,1721467331.375
16.92,1721467331.390625
40.11,1721467331.40625
57.54,1721467331.421875
69.63,1721467331.4375
77.13,1721467331.453125
80.62,1721467331.46875
80.52,1721467331.484375
77.38,1721467331.5
72.07,1721467331.515625
65.76,1721467331.53125
59.63,1721467331.546875
54.52,1721467331.5625
50.68,1721467331.578125
47.9,1721467331.59375
45.78,1721467331.609375
44.02,1721467331.625
42.65,1721467331.640625
41.84,1721467331.65625
41.75,1721467331.671875
42.26,1721467331.6875
42.87,1721467331.703125
42.86,1721467331.71875
41.58,1721467331.734375
38.71,1721467331.75
34.35,1721467331.765625
29.0,1721467331.78125
23.26,1721467331.796875
17.63,1721467331.8125
12.25,1721467331.828125
6.88,1721467331.84375
1.06,1721467331.859375
-5.66,1721467331.875
-13.42,1721467331.890625
-21.96,1721467331.90625
-30.65,1721467331.921875
-38.77,1721467331.9375
-45.82,1721467331.953125
-51.79,1721467331.96875
-57.23,1721467331.984375
-63.17,1721467332.0
-70.78,1721467332.015625
-80.9,1721467332.03125
-93.51,1721467332.046875
-107.29,1721467332.0625
-119.58,1721467332.078125
-126.84,1721467332.09375
-125.72,1721467332.109375
-114.19,1721467332.125
-92.48,1721467332.140625
-63.18,1721467332.15625
-30.51,1721467332.171875
1.08,1721467332.1875
28.18,1721467332.203125
49.16,1721467332.21875
64.06,1721467332.234375
73.87,1721467332.25
79.69,1721467332.265625
82.24,1721467332.28125
81.84,1721467332.296875
78.75,1721467332.3125
73.48,1721467332.328125
66.9,1721467332.34375
60.03,1721467332.359375
53.79,1721467332.375
48.67,1721467332.390625
44.84,1721467332.40625
42.15,1721467332.421875
40.42,1721467332.4375
39.44,1721467332.453125
39.06,1721467332.46875
38.98,1721467332.484375
38.77,1721467332.5
37.88,1721467332.515625
35.85,1721467332.53125
32.47,1721467332.546875
27.85,1721467332.5625
22.45,1721467332.578125
16.72,1721467332.59375
10.99,1721467332.609375
5.23,1721467332.625
-0.89,1721467332.640625
-7.76,1721467332.65625
-15.65,1721467332.671875
-24.38,1721467332.6875
-33.44,1721467332.703125
-42.12,1721467332.71875
-49.87,1721467332.734375
-56.52,1721467332.75
-62.47,1721467332.765625
-68.5,1721467332.78125
-75.62,1721467332.796875
-84.76,1721467332.8125
-96.3,1721467332.828125
-109.76,1721467332.84375
-123.38,1721467332.859375
-134.22,1721467332.875
-138.74,1721467332.890625
-133.9,1721467332.90625
-118.29,1721467332.921875
-92.99,1721467332.9375
-61.35,1721467332.953125
-27.98,1721467332.96875
2.73,1721467332.984375
27.96,1721467333.0
46.85,1721467333.015625
60.16,1721467333.03125
69.24,1721467333.046875
75.17,1721467333.0625
78.4,1721467333.078125
78.87,1721467333.09375
76.56,1721467333.109375
71.85,1721467333.125
65.63,1721467333.140625
59.1,1721467333.15625
53.36,1721467333.171875
49.09,1721467333.1875
46.42,1721467333.203125
44.95,1721467333.21875
44.03,1721467333.234375
43.1,1721467333.25
41.8,1721467333.265625
40.08,1721467333.28125
38.1,1721467333.296875
36.01,1721467333.3125
33.82,1721467333.328125
31.34,1721467333.34375
28.2,1721467333.359375
24.0,1721467333.375
18.44,1721467333.390625
11.46,1721467333.40625
3.23,1721467333.421875
-5.82,1721467333.4375
-15.1,1721467333.453125
-24.03,1721467333.46875
-32.24,1721467333.484375
-39.7,1721467333.5
-46.74,1721467333.515625
-54.01,1721467333.53125
-62.25,1721467333.546875
-72.18,1721467333.5625
-84.24,1721467333.578125
-98.35,1721467333.59375
-113.54,1721467333.609375
-127.7,1721467333.625
-137.71,1721467333.640625
-140.14,1721467333.65625
-132.38,1721467333.671875
-113.74,1721467333.6875
-86.0,1721467333.703125
-53.03,1721467333.71875
-19.56,1721467333.734375
10.36,1721467333.75
34.43,1721467333.765625
52.29,1721467333.78125
64.89,1721467333.796875
73.53,1721467333.8125
79.03,1721467333.828125
81.56,1721467333.84375
80.96,1721467333.859375
77.32,1721467333.875
71.3,1721467333.890625
64.1,1721467333.90625
57.13,1721467333.921875
51.47,1721467333.9375
47.56,1721467333.953125
45.24,1721467333.96875
43.91,1721467333.984375
42.93,1721467334.0
41.83,1721467334.015625
40.48,1721467334.03125
38.92,1721467334.046875
37.28,1721467334.0625
35.58,1721467334.078125
33.64,1721467334.09375
31.1,1721467334.109375
27.52,1721467334.125
22.49,1721467334.140625
15.83,1721467334.15625
7.67,1721467334.171875
-1.55,1721467334.1875
-11.19,1721467334.203125
-20.56,1721467334.21875
-29.22,1721467334.234375
-37.03,1721467334.25
-44.22,1721467334.265625
-51.26,1721467334.28125
-58.77,1721467334.296875
-67.4,1721467334.3125
-77.72,1721467334.328125
-90.08,1721467334.34375
-104.25,1721467334.359375
-118.96,1721467334.375
-131.78,1721467334.390625
-139.36,1721467334.40625
-138.41,1721467334.421875
-126.85,1721467334.4375
-104.8,1721467334.453125
-74.74,1721467334.46875
-40.85,1721467334.484375
-7.62,1721467334.5
21.49,1721467334.515625
44.72,1721467334.53125
62.0,1721467334.546875
74.14,1721467334.5625
82.11,1721467334.578125
86.5,1721467334.59375
87.53,1721467334.609375
85.39,1721467334.625
80.6,1721467334.640625
74.09,1721467334.65625
67.12,1721467334.671875
60.89,1721467334.6875
56.26,1721467334.703125
53.52,1721467334.71875
52.35,1721467334.734375
52.08,1721467334.75
51.92,1721467334.765625
51.26,1721467334.78125
49.81,1721467334.796875
47.64,1721467334.8125
44.99,1721467334.828125
42.15,1721467334.84375
39.19,1721467334.859375
35.97,1721467334.875
32.09,1721467334.890625
27.11,1721467334.90625
20.69,1721467334.921875
12.77,1721467334.9375
3.6,1721467334.953125
-6.3,1721467334.96875
-16.28,1721467334.984375
-25.76,1721467335.0
-34.47,1721467335.015625
-42.39,1721467335.03125
-49.87,1721467335.046875
-57.48,1721467335.0625
-65.96,1721467335.078125
-76.11,1721467335.09375
-88.51,1721467335.109375
-103.08,1721467335.125
-118.58,1721467335.140625
-132.45,1721467335.15625
-141.12,1721467335.171875
-141.0,1721467335.1875
-129.79,1721467335.203125
-107.54,1721467335.21875
-76.88,1721467335.234375
-42.21,1721467335.25
-8.32,1721467335.265625
21.11,1721467335.28125
44.37,1721467335.296875
61.49,1721467335.3125
73.49,1721467335.328125
81.36,1721467335.34375
85.52,1721467335.359375
85.93,1721467335.375
82.64,1721467335.390625
76.32,1721467335.40625
68.39,1721467335.421875
60.7,1721467335.4375
54.89,1721467335.453125
51.75,1721467335.46875
51.03,1721467335.484375
51.67,1721467335.5
52.3,1721467335.515625
51.93,1721467335.53125
50.26,1721467335.546875
47.65,1721467335.5625
44.82,1721467335.578125
42.32,1721467335.59375
40.23,1721467335.609375
38.02,1721467335.625
34.86,1721467335.640625
29.93,1721467335.65625
22.86,1721467335.671875
13.93,1721467335.6875
3.97,1721467335.703125
-5.95,1721467335.71875
-14.94,1721467335.734375
-22.64,1721467335.75
-29.33,1721467335.765625
-35.77,1721467335.78125
-42.97,1721467335.796875
-51.8,1721467335.8125
-62.92,1721467335.828125
-76.57,1721467335.84375
-92.42,1721467335.859375
-109.3,1721467335.875
-124.92,1721467335.890625
-136.11,1721467335.90625
-139.46,1721467335.921875
-132.47,1721467335.9375
-114.62,1721467335.953125
-87.76,1721467335.96875
-55.65,1721467335.984375
-22.62,1721467336.0
7.69,1721467336.015625
33.32,1721467336.03125
53.92,1721467336.046875
70.08,1721467336.0625
82.47,1721467336.078125
91.36,1721467336.09375
96.65,1721467336.109375
98.29,1721467336.125
96.64,1721467336.140625
92.53,1721467336.15625
87.11,1721467336.171875
81.44,1721467336.1875
76.29,1721467336.203125
72.08,1721467336.21875
68.94,1721467336.234375
66.8,1721467336.25
65.54,1721467336.265625
64.96,1721467336.28125
64.75,1721467336.296875
64.55,1721467336.3125
63.88,1721467336.328125
62.22,1721467336.34375
59.14,1721467336.359375
54.46,1721467336.375
48.31,1721467336.390625
41.16,1721467336.40625
33.57,1721467336.421875
26.01,1721467336.4375
18.56,1721467336.453125
10.88,1721467336.46875
2.45,1721467336.484375
-7.12,1721467336.5
-17.79,1721467336.515625
-29.03,1721467336.53125
-39.97,1721467336.546875
-49.83,1721467336.5625
-58.32,1721467336.578125
-65.75,1721467336.59375
-73.13,1721467336.609375
-81.74,1721467336.625
-92.82,1721467336.640625
-106.91,1721467336.65625
-123.27,1721467336.671875
-139.65,1721467336.6875
-152.47,1721467336.703125
-157.7,1721467336.71875
-152.2,1721467336.734375
-134.87,1721467336.75
-107.28,1721467336.765625
-73.21,1721467336.78125
-37.43,1721467336.796875
-4.22,1721467336.8125
23.8,1721467336.828125
45.88,1721467336.84375
62.64,1721467336.859375
75.12,1721467336.875
84.14,1721467336.890625
89.99,1721467336.90625
92.74,1721467336.921875
92.68,1721467336.9375
90.53,1721467336.953125
87.35,1721467336.96875
84.19,1721467336.984375
81.78,1721467337.0
80.3,1721467337.015625
79.49,1721467337.03125
78.92,1721467337.046875
78.24,1721467337.0625
77.38,1721467337.078125
76.47,1721467337.09375
75.73,1721467337.109375
75.25,1721467337.125
74.92,1721467337.140625
74.31,1721467337.15625
72.85,1721467337.171875
69.96,1721467337.1875
65.3,1721467337.203125
58.87,1721467337.21875
51.1,1721467337.234375
42.72,1721467337.25
34.44,1721467337.265625
26.76,1721467337.28125
19.77,1721467337.296875
13.11,1721467337.3125
6.21,1721467337.328125
-1.47,1721467337.34375
-10.16,1721467337.359375
-19.73,1721467337.375
-29.68,1721467337.390625
-39.37,1721467337.40625
-48.15,1721467337.421875
-55.66,1721467337.4375
-61.91,1721467337.453125
-67.29,1721467337.46875
-72.56,1721467337.484375
-78.67,1721467337.5
-86.6,1721467337.515625
-97.06,1721467337.53125
-110.12,1721467337.546875
-124.82,1721467337.5625
-138.95,1721467337.578125
-149.23,1721467337.59375
-152.11,1721467337.609375
-144.93,1721467337.625
-126.95,1721467337.640625
-99.88,1721467337.65625
-67.39,1721467337.671875
-33.95,1721467337.6875
-3.32,1721467337.703125
22.38,1721467337.71875
42.84,1721467337.734375
58.89,1721467337.75
71.52,1721467337.765625
81.22,1721467337.78125
87.87,1721467337.796875
91.18,1721467337.8125
91.21,1721467337.828125
88.62,1721467337.84375
84.55,1721467337.859375
80.17,1721467337.875
76.32,1721467337.890625
73.28,1721467337.90625
70.94,1721467337.921875
69.0,1721467337.9375
67.29,1721467337.953125
65.8,1721467337.96875
64.64,1721467337.984375
63.86,1721467338.0
63.34,1721467338.015625
62.79,1721467338.03125
61.78,1721467338.046875
59.96,1721467338.0625
57.06,1721467338.078125
53.04,1721467338.09375
48.02,1721467338.109375
42.27,1721467338.125
36.09,1721467338.140625
29.77,1721467338.15625
23.52,1721467338.171875
17.43,1721467338.1875
11.48,1721467338.203125
5.61,1721467338.21875
-0.28,1721467338.234375
-6.36,1721467338.25
-12.79,1721467338.265625
-19.69,1721467338.28125
-27.07,1721467338.296875
-34.71,1721467338.3125
-42.2,1721467338.328125
-49.08,1721467338.34375
-55.02,1721467338.359375
-60.05,1721467338.375
-64.6,1721467338.390625
-69.47,1721467338.40625
-75.58,1721467338.421875
-83.76,1721467338.4375
-94.31,1721467338.453125
-106.62,1721467338.46875
-118.91,1721467338.484375
-128.34,1721467338.5
-131.65,1721467338.515625
-126.15,1721467338.53125
-110.82,1721467338.546875
-86.8,1721467338.5625
-57.25,1721467338.578125
-26.2,1721467338.59375
2.64,1721467338.609375
26.97,1721467338.625
46.12,1721467338.640625
60.57,1721467338.65625
71.15,1721467338.671875
78.35,1721467338.6875
82.2,1721467338.703125
82.65,1721467338.71875
80.05,1721467338.734375
75.27,1721467338.75
69.65,1721467338.765625
64.46,1721467338.78125
60.5,1721467338.796875
57.86,1721467338.8125
56.07,1721467338.828125
54.5,1721467338.84375
52.75,1721467338.859375
50.85,1721467338.875
49.17,1721467338.890625
48.12,1721467338.90625
47.86,1721467338.921875
48.08,1721467338.9375
48.07,1721467338.953125
47.01,1721467338.96875
44.25,1721467338.984375
39.62,1721467339.0
33.49,1721467339.015625
26.62,1721467339.03125
19.89,1721467339.046875
13.98,1721467339.0625
9.12,1721467339.078125
5.0,1721467339.09375
0.94,1721467339.109375
-3.84,1721467339.125
-9.87,1721467339.140625
-17.23,1721467339.15625
-25.4,1721467339.171875
-33.5,1721467339.1875
-40.58,1721467339.203125
-46.01,1721467339.21875
-49.77,1721467339.234375
-52.46,1721467339.25
-55.07,1721467339.265625
-58.77,1721467339.28125
-64.51,1721467339.296875
-72.81,1721467339.3125
-83.53,1721467339.328125
-95.63,1721467339.34375
-107.05,1721467339.359375
-114.98,1721467339.375
-116.46,1721467339.390625
-109.4,1721467339.40625
-93.35,1721467339.421875
-69.94,1721467339.4375
-42.43,1721467339.453125
-14.63,1721467339.46875
10.24,1721467339.484375
30.42,1721467339.5
45.57,1721467339.515625
56.3,1721467339.53125
63.36,1721467339.546875
67.29,1721467339.5625
68.31,1721467339.578125
66.66,1721467339.59375
62.88,1721467339.609375
57.86,1721467339.625
52.62,1721467339.640625
47.96,1721467339.65625
44.25,1721467339.671875
41.4,1721467339.6875
39.12,1721467339.703125
37.18,1721467339.71875
35.57,1721467339.734375
34.46,1721467339.75
34.01,1721467339.765625
34.13,1721467339.78125
34.37,1721467339.796875
34.01,1721467339.8125
32.34,1721467339.828125
29.02,1721467339.84375
24.18,1721467339.859375
18.4,1721467339.875
12.41,1721467339.890625
6.75,1721467339.90625
1.59,1721467339.921875
-3.38,1721467339.9375
-8.67,1721467339.953125
-14.8,1721467339.96875
-21.97,1721467339.984375
-29.92,1721467340.0
-38.07,1721467340.015625
-45.71,1721467340.03125
-52.37,1721467340.046875
-57.97,1721467340.0625
-62.93,1721467340.078125
-68.07,1721467340.09375
-74.34,1721467340.109375
-82.52,1721467340.125
-92.77,1721467340.140625
-104.33,1721467340.15625
-115.34,1721467340.171875
-123.09,1721467340.1875
-124.63,1721467340.203125
-117.77,1721467340.21875
-101.88,1721467340.234375
-78.37,1721467340.25
-50.38,1721467340.265625
-21.79,1721467340.28125
3.95,1721467340.296875
24.79,1721467340.3125
40.31,1721467340.328125
51.28,1721467340.34375
58.87,1721467340.359375
63.95,1721467340.375
66.83,1721467340.390625
67.46,1721467340.40625
65.83,1721467340.421875
62.3,1721467340.4375
57.57,1721467340.453125
52.48,1721467340.46875
47.73,1721467340.484375
43.64,1721467340.5
40.23,1721467340.515625
37.36,1721467340.53125
34.97,1721467340.546875
33.06,1721467340.5625
31.68,1721467340.578125
30.75,1721467340.59375
29.92,1721467340.609375
28.71,1721467340.625
26.62,1721467340.640625
23.38,1721467340.65625
19.04,1721467340.671875
14.02,1721467340.6875
8.75,1721467340.703125
3.56,1721467340.71875
-1.6,1721467340.734375
-7.04,1721467340.75
-13.14,1721467340.765625
-20.11,1721467340.78125
-27.76,1721467340.796875
-35.58,1721467340.8125
-42.94,1721467340.828125
-49.39,1721467340.84375
-54.93,1721467340.859375
-59.95,1721467340.875
-65.22,1721467340.890625
-71.58,1721467340.90625
-79.71,1721467340.921875
-89.8,1721467340.9375
-101.25,1721467340.953125
-112.44,1721467340.96875
-120.88,1721467340.984375
-123.68,1721467341.0
-118.49,1721467341.015625
-104.39,1721467341.03125
-82.39,1721467341.046875
-55.29,1721467341.0625
-26.71,1721467341.078125
-0.07,1721467341.09375
22.43,1721467341.109375
40.05,1721467341.125
53.16,1721467341.140625
62.62,1721467341.15625
69.12,1721467341.171875
73.0,1721467341.1875
74.34,1721467341.203125
73.29,1721467341.21875
70.24,1721467341.234375
65.88,1721467341.25
60.95,1721467341.265625
56.09,1721467341.28125
51.64,1721467341.296875
47.73,1721467341.3125
44.33,1721467341.328125
41.49,1721467341.34375
39.32,1721467341.359375
37.92,1721467341.375
37.23,1721467341.390625
36.94,1721467341.40625
36.46,1721467341.421875
35.11,1721467341.4375
32.44,1721467341.453125
28.41,1721467341.46875
23.41,1721467341.484375
18.05,1721467341.5
12.9,1721467341.515625
8.12,1721467341.53125
3.41,1721467341.546875
-1.83,1721467341.5625
-8.16,1721467341.578125
-15.79,1721467341.59375
-24.41,1721467341.609375
-33.3,1721467341.625
-41.62,1721467341.640625
-48.82,1721467341.65625
-54.83,1721467341.671875
-60.11,1721467341.6875
-65.47,1721467341.703125
-71.79,1721467341.71875
-79.81,1721467341.734375
-89.78,1721467341.75
-101.21,1721467341.765625
-112.6,1721467341.78125
-121.49,1721467341.796875
-124.89,1721467341.8125
-120.16,1721467341.828125
-105.99,1721467341.84375
-83.08,1721467341.859375
-54.09,1721467341.875
-22.88,1721467341.890625
6.78,1721467341.90625
32.14,1721467341.921875
52.02,1721467341.9375
66.47,1721467341.953125
76.17,1721467341.96875
81.75,1721467341.984375
83.61,1721467342.0
82.0,1721467342.015625
77.42,1721467342.03125
70.72,1721467342.046875
63.01,1721467342.0625
55.43,1721467342.078125
48.8,1721467342.09375
43.54,1721467342.109375
39.7,1721467342.125
37.15,1721467342.140625
35.7,1721467342.15625
35.14,1721467342.171875
35.17,1721467342.1875
35.34,1721467342.203125
35.13,1721467342.21875
34.06,1721467342.234375
31.88,1721467342.25
28.67,1721467342.265625
24.79,1721467342.28125
20.63,1721467342.296875
16.4,1721467342.3125
11.96,1721467342.328125
6.94,1721467342.34375
0.94,1721467342.359375
-6.22,1721467342.375
-14.3,1721467342.390625
-22.73,1721467342.40625
-30.79,1721467342.421875
-37.96,1721467342.4375
-44.1,1721467342.453125
-49.53,1721467342.46875
-54.92,1721467342.484375
-61.1,1721467342.5
-68.88,1721467342.515625
-78.79,1721467342.53125
-90.72,1721467342.546875
-103.52,1721467342.5625
-114.91,1721467342.578125
-121.77,1721467342.59375
-121.02,1721467342.609375
-110.71,1721467342.625
-90.88,1721467342.640625
-63.79,1721467342.65625
-33.12,1721467342.671875
-2.88,1721467342.6875
23.87,1721467342.703125
45.56,1721467342.71875
61.96,1721467342.734375
73.57,1721467342.75
80.96,1721467342.765625
84.49,1721467342.78125
84.42,1721467342.796875
81.27,1721467342.8125
75.91,1721467342.828125
69.52,1721467342.84375
63.25,1721467342.859375
57.92,1721467342.875
53.82,1721467342.890625
50.85,1721467342.90625
48.73,1721467342.921875
47.2,1721467342.9375
46.18,1721467342.953125
45.71,1721467342.96875
45.69,1721467342.984375
45.79,1721467343.0
45.39,1721467343.015625
43.79,1721467343.03125
40.44,1721467343.046875
35.26,1721467343.0625
28.67,1721467343.078125
21.46,1721467343.09375
14.41,1721467343.109375
7.91,1721467343.125
1.83,1721467343.140625
-4.4,1721467343.15625
-11.46,1721467343.171875
-19.74,1721467343.1875
-29.07,1721467343.203125
-38.79,1721467343.21875
-48.02,1721467343.234375
-56.07,1721467343.25
-62.74,1721467343.265625
-68.45,1721467343.28125
-74.16,1721467343.296875
-81.07,1721467343.3125
-90.29,1721467343.328125
-102.36,1721467343.34375
-116.81,1721467343.359375
-131.85,1721467343.375
-144.43,1721467343.390625
-150.87,1721467343.40625
-147.99,1721467343.421875
-134.22,1721467343.4375
-110.36,1721467343.453125
-79.41,1721467343.46875
-45.59,1721467343.484375
-12.97,1721467343.5
15.6,1721467343.515625
38.98,1721467343.53125
57.35,1721467343.546875
71.44,1721467343.5625
81.84,1721467343.578125
88.74,1721467343.59375
92.17,1721467343.609375
92.3,1721467343.625
89.78,1721467343.640625
85.64,1721467343.65625
80.98,1721467343.671875
76.7,1721467343.6875
73.19,1721467343.703125
70.44,1721467343.71875
68.18,1721467343.734375
66.22,1721467343.75
64.55,1721467343.765625
63.39,1721467343.78125
62.99,1721467343.796875
63.34,1721467343.8125
64.02,1721467343.828125
64.23,1721467343.84375
63.01,1721467343.859375
59.65,1721467343.875
54.0,1721467343.890625
46.56,1721467343.90625
38.32,1721467343.921875
30.38,1721467343.9375
23.46,1721467343.953125
17.6,1721467343.96875
12.18,1721467343.984375
6.19,1721467344.0
-1.24,1721467344.015625
-10.44,1721467344.03125
-21.04,1721467344.046875
-32.1,1721467344.0625
-42.51,1721467344.078125
-51.42,1721467344.09375
-58.63,1721467344.109375
-64.59,1721467344.125
-70.36,1721467344.140625
-77.21,1721467344.15625
-86.31,1721467344.171875
-98.21,1721467344.1875
-112.42,1721467344.203125
-127.16,1721467344.21875
-139.42,1721467344.234375
-145.57,1721467344.25
-142.44,1721467344.265625
-128.52,1721467344.28125
-104.58,1721467344.296875
-73.65,1721467344.3125
-40.03,1721467344.328125
-7.88,1721467344.34375
19.91,1721467344.359375
42.23,1721467344.375
59.34,1721467344.390625
72.15,1721467344.40625
81.38,1721467344.421875
87.31,1721467344.4375
89.98,1721467344.453125
89.56,1721467344.46875
86.73,1721467344.484375
82.57,1721467344.5
78.25,1721467344.515625
74.62,1721467344.53125
71.97,1721467344.546875
70.05,1721467344.5625
68.37,1721467344.578125
66.5,1721467344.59375
64.35,1721467344.609375
62.17,1721467344.625
60.38,1721467344.640625
59.32,1721467344.65625
59.01,1721467344.671875
59.08,1721467344.6875
58.79,1721467344.703125
57.39,1721467344.71875
54.28,1721467344.734375
49.33,1721467344.75
42.92,1721467344.765625
35.82,1721467344.78125
28.91,1721467344.796875
22.79,1721467344.8125
17.55,1721467344.828125
12.74,1721467344.84375
7.58,1721467344.859375
1.35,1721467344.875
-6.23,1721467344.890625
-14.87,1721467344.90625
-23.78,1721467344.921875
-32.1,1721467344.9375
-39.22,1721467344.953125
-45.07,1721467344.96875
-50.1,1721467344.984375
-55.13,1721467345.0
-61.01,1721467345.015625
-68.5,1721467345.03125
-78.08,1721467345.046875
-89.82,1721467345.0625
-103.07,1721467345.078125
-116.19,1721467345.09375
-126.55,1721467345.109375
-130.97,1721467345.125
-126.7,1721467345.140625
-112.5,1721467345.15625
-89.34,1721467345.171875
-60.27,1721467345.1875
-29.4,1721467345.203125
-0.59,1721467345.21875
23.74,1721467345.234375
42.91,1721467345.25
57.53,1721467345.265625
68.54,1721467345.28125
76.49,1721467345.296875
81.34,1721467345.3125
82.77,1721467345.328125
80.8,1721467345.34375
76.13,1721467345.359375
70.06,1721467345.375
64.05,1721467345.390625
59.15,1721467345.40625
55.75,1721467345.421875
53.54,1721467345.4375
52.02,1721467345.453125
50.8,1721467345.46875
49.87,1721467345.484375
49.47,1721467345.5
49.78,1721467345.515625
50.63,1721467345.53125
51.37,1721467345.546875
51.11,1721467345.5625
49.07,1721467345.578125
45.01,1721467345.59375
39.33,1721467345.609375
32.88,1721467345.625
26.57,1721467345.640625
20.92,1721467345.65625
15.83,1721467345.671875
10.66,1721467345.6875
4.54,1721467345.703125
-3.12,1721467345.71875
-12.3,1721467345.734375
-22.33,1721467345.75
-32.1,1721467345.765625
-40.55,1721467345.78125
-47.15,1721467345.796875
-52.14,1721467345.8125
-56.51,1721467345.828125
-61.68,1721467345.84375
-69.01,1721467345.859375
-79.31,1721467345.875
-92.28,1721467345.890625
-106.34,1721467345.90625
-118.69,1721467345.921875
-125.91,1721467345.9375
-124.9,1721467345.953125
-113.85,1721467345.96875
-93.06,1721467345.984375
-64.89,1721467346.0
-33.17,1721467346.015625
-1.99,1721467346.03125
25.41,1721467346.046875
47.3,1721467346.0625
63.45,1721467346.078125
74.55,1721467346.09375
81.51,1721467346.109375
84.95,1721467346.125
85.19,1721467346.140625
82.46,1721467346.15625
77.27,1721467346.171875
70.57,1721467346.1875
63.56,1721467346.203125
57.37,1721467346.21875
52.69,1721467346.234375
49.58,1721467346.25
47.63,1721467346.265625
46.29,1721467346.28125
45.25,1721467346.296875
44.55,1721467346.3125
44.49,1721467346.328125
45.2,1721467346.34375
46.43,1721467346.359375
47.38,1721467346.375
47.06,1721467346.390625
44.67,1721467346.40625
40.02,1721467346.421875
33.7,1721467346.4375
26.79,1721467346.453125
20.39,1721467346.46875
15.09,1721467346.484375
10.7,1721467346.5
6.32,1721467346.515625
0.8,1721467346.53125
-6.7,1721467346.546875
-16.3,1721467346.5625
-27.3,1721467346.578125
-38.44,1721467346.59375
-48.46,1721467346.609375
-56.6,1721467346.625
-62.88,1721467346.640625
-68.13,1721467346.65625
-73.65,1721467346.671875
-80.86,1721467346.6875
-90.76,1721467346.703125
-103.5,1721467346.71875
-118.01,1721467346.734375
-131.86,1721467346.75
-141.66,1721467346.765625
-143.84,1721467346.78125
-135.86,1721467346.796875
-117.22,1721467346.8125
-89.77,1721467346.828125
-57.27,1721467346.84375
-24.16,1721467346.859375
5.79,1721467346.875
30.38,1721467346.890625
49.16,1721467346.90625
62.8,1721467346.921875
72.27,1721467346.9375
78.24,1721467346.953125
80.99,1721467346.96875
80.72,1721467346.984375
77.88,1721467347.0
73.39,1721467347.015625
68.31,1721467347.03125
63.59,1721467347.046875
59.71,1721467347.0625
56.65,1721467347.078125
54.1,1721467347.09375
51.8,1721467347.109375
49.65,1721467347.125
47.85,1721467347.140625
46.67,1721467347.15625
46.31,1721467347.171875
46.67,1721467347.1875
47.35,1721467347.203125
47.68,1721467347.21875
46.92,1721467347.234375
44.46,1721467347.25
40.08,1721467347.265625
34.05,1721467347.28125
27.07,1721467347.296875
20.09,1721467347.3125
13.89,1721467347.328125
8.73,1721467347.34375
4.22,1721467347.359375
-0.5,1721467347.375
-6.38,1721467347.390625
-14.03,1721467347.40625
-23.33,1721467347.421875
-33.54,1721467347.4375
-43.51,1721467347.453125
-52.24,1721467347.46875
-59.21,1721467347.484375
-64.65,1721467347.5
-69.41,1721467347.515625
-74.69,1721467347.53125
-81.68,1721467347.546875
-91.22,1721467347.5625
-103.39,1721467347.578125
-117.23,1721467347.59375
-130.59,1721467347.609375
-140.31,1721467347.625
-143.02,1721467347.640625
-136.16,1721467347.65625
-118.99,1721467347.671875
-93.09,1721467347.6875
-61.97,1721467347.703125
