PPG GREEN,time
2124031.0,1721467270.847
2125269.0,1721467270.887
2127164.0,1721467270.929
2128679.0,1721467270.967
2131162.0,1721467271.007
2133731.0,1721467271.048
2134519.0,1721467271.087
2132310.0,1721467271.128
2129753.0,1721467271.168
2129019.0,1721467271.207
2131964.0,1721467271.247
2138660.0,1721467271.288
2146273.0,1721467271.328
2154189.0,1721467271.367
2162199.0,1721467271.408
2169886.0,1721467271.447
2177166.0,1721467271.487
2185387.0,1721467271.529
2195771.0,1721467271.567
2205922.0,1721467271.607
2215732.0,1721467271.649
2223658.0,1721467271.688
2231911.0,1721467271.729
2239974.0,1721467271.769
2246946.0,1721467271.808
2251441.0,1721467271.848
2252533.0,1721467271.889
2249599.0,1721467271.929
2243199.0,1721467271.968
2237609.0,1721467272.009
2234146.0,1721467272.048
2232467.0,1721467272.088
2232545.0,1721467272.131
2232759.0,1721467272.169
2232423.0,1721467272.209
2231729.0,1721467272.25
2231344.0,1721467272.289
2231411.0,1721467272.33
2231111.0,1721467272.37
2230357.0,1721467272.409
2231348.0,1721467272.449
2231989.0,1721467272.49
2233464.0,1721467272.53
2238208.0,1721467272.569
2245779.0,1721467272.61
2253119.0,1721467272.649
2259769.0,1721467272.69
2266042.0,1721467272.732
2270249.0,1721467272.77
2271538.0,1721467272.81
2272302.0,1721467272.851
2273811.0,1721467272.89
2275407.0,1721467272.931
2277253.0,1721467272.971
2278979.0,1721467273.01
2279472.0,1721467273.05
2280816.0,1721467273.091
2281464.0,1721467273.131
2283057.0,1721467273.171
2284813.0,1721467273.212
2287742.0,1721467273.251
2291849.0,1721467273.291
2297425.0,1721467273.333
2302220.0,1721467273.371
2302907.0,1721467273.411
2302969.0,1721467273.452
2303316.0,1721467273.491
2302834.0,1721467273.532
2299765.0,1721467273.572
2294648.0,1721467273.611
2287188.0,1721467273.651
2276175.0,1721467273.692
2262263.0,1721467273.732
2252796.0,1721467273.772
2247638.0,1721467273.813
2243393.0,1721467273.852
2240335.0,1721467273.892
2240237.0,1721467273.934
2242357.0,1721467273.972
2248672.0,1721467274.012
2254449.0,1721467274.053
2255939.0,1721467274.092
2256177.0,1721467274.133
2257270.0,1721467274.173
2257324.0,1721467274.212
2259149.0,1721467274.294
2256886.0,1721467274.252
2263688.0,1721467274.373
2262289.0,1721467274.334
2263612.0,1721467274.414
2261293.0,1721467274.453
2258108.0,1721467274.535
2259281.0,1721467274.493
2257509.0,1721467274.573
2256960.0,1721467274.613
2256476.0,1721467274.654
2256227.0,1721467274.693
2254838.0,1721467274.734
2255277.0,1721467274.774
2257778.0,1721467274.813
2262423.0,1721467274.895
2260231.0,1721467274.853
2267430.0,1721467274.974
2264880.0,1721467274.934
2270707.0,1721467275.015
2274302.0,1721467275.054
2277674.0,1721467275.094
2279913.0,1721467275.136
2279767.0,1721467275.174
2278797.0,1721467275.214
2278138.0,1721467275.255
2278664.0,1721467275.294
2279982.0,1721467275.335
2282203.0,1721467275.375
2284744.0,1721467275.414
2287095.0,1721467275.454
2289041.0,1721467275.496
2290630.0,1721467275.535
2292776.0,1721467275.575
2295682.0,1721467275.616
2299135.0,1721467275.655
2302875.0,1721467275.695
2307444.0,1721467275.737
2312832.0,1721467275.775
2316891.0,1721467275.815
2318463.0,1721467275.856
2318923.0,1721467275.895
2319146.0,1721467275.937
2319893.0,1721467275.976
2321769.0,1721467276.015
2324194.0,1721467276.055
2326995.0,1721467276.097
2329574.0,1721467276.136
2331900.0,1721467276.176
2333997.0,1721467276.217
2336224.0,1721467276.256
2338443.0,1721467276.296
2340897.0,1721467276.338
2343769.0,1721467276.376
2346499.0,1721467276.416
2348996.0,1721467276.457
2349804.0,1721467276.496
2348041.0,1721467276.537
2346183.0,1721467276.578
2345070.0,1721467276.617
2345383.0,1721467276.657
2346618.0,1721467276.698
2348411.0,1721467276.738
2350924.0,1721467276.777
2352545.0,1721467276.811
2354354.0,1721467276.847
2356165.0,1721467276.887
2358135.0,1721467276.929
2360182.0,1721467276.967
2362406.0,1721467277.008
2365020.0,1721467277.049
2367434.0,1721467277.088
2369282.0,1721467277.129
2368517.0,1721467277.17
2365575.0,1721467277.209
2363225.0,1721467277.249
2362356.0,1721467277.29
2362823.0,1721467277.33
2364010.0,1721467277.369
2365639.0,1721467277.41
2367201.0,1721467277.449
2368223.0,1721467277.489
2369498.0,1721467277.531
2370737.0,1721467277.57
2371806.0,1721467277.61
2373799.0,1721467277.651
2375298.0,1721467277.69
2377269.0,1721467277.731
2379527.0,1721467277.771
2381608.0,1721467277.81
2382261.0,1721467277.85
2379976.0,1721467277.891
2376388.0,1721467277.931
2373714.0,1721467277.97
2372998.0,1721467278.008
2373424.0,1721467278.047
2374229.0,1721467278.088
2375432.0,1721467278.13
2376747.0,1721467278.168
2377825.0,1721467278.208
2378483.0,1721467278.25
2379510.0,1721467278.289
2381094.0,1721467278.33
2382499.0,1721467278.37
2383975.0,1721467278.407
2386182.0,1721467278.448
2387620.0,1721467278.489
2389581.0,1721467278.529
2391452.0,1721467278.559
2393326.0,1721467278.6
2393185.0,1721467278.64
2389909.0,1721467278.68
2385763.0,1721467278.721
2382461.0,1721467278.76
2380153.0,1721467278.8
2379845.0,1721467278.88
2379701.0,1721467278.841
2380786.0,1721467278.921
2381434.0,1721467278.961
2382039.0,1721467279.0
2382696.0,1721467279.04
2383230.0,1721467279.081
2384369.0,1721467279.121
2385652.0,1721467279.161
2386825.0,1721467279.202
2388230.0,1721467279.241
2389683.0,1721467279.275
2391783.0,1721467279.312
2393577.0,1721467279.348
2395106.0,1721467279.389
2397052.0,1721467279.43
2398396.0,1721467279.469
2397371.0,1721467279.51
2393761.0,1721467279.551
2390232.0,1721467279.59
2387901.0,1721467279.63
2387129.0,1721467279.671
2387294.0,1721467279.706
2388047.0,1721467279.745
2388710.0,1721467279.786
2389638.0,1721467279.825
2390052.0,1721467279.866
2390742.0,1721467279.907
2391277.0,1721467279.946
2392727.0,1721467279.986
2393869.0,1721467280.027
2395598.0,1721467280.066
2397138.0,1721467280.107
2398914.0,1721467280.147
2400648.0,1721467280.186
2402284.0,1721467280.226
2403877.0,1721467280.268
2405766.0,1721467280.307
2406393.0,1721467280.347
2404062.0,1721467280.389
2400034.0,1721467280.428
2396901.0,1721467280.469
2395377.0,1721467280.511
2394799.0,1721467280.549
2395613.0,1721467280.589
2396445.0,1721467280.631
2397380.0,1721467280.67
2397949.0,1721467280.711
2398480.0,1721467280.751
2399220.0,1721467280.79
2399954.0,1721467280.831
2401516.0,1721467280.872
2402774.0,1721467280.91
2404498.0,1721467280.949
2406269.0,1721467280.991
2407898.0,1721467281.032
2409762.0,1721467281.072
2411226.0,1721467281.114
2413059.0,1721467281.152
2412681.0,1721467281.192
2409225.0,1721467281.233
2405287.0,1721467281.272
2402662.0,1721467281.313
2401720.0,1721467281.354
2401477.0,1721467281.393
2402609.0,1721467281.433
2403432.0,1721467281.474
2404035.0,1721467281.513
2404726.0,1721467281.553
2405703.0,1721467281.594
2406605.0,1721467281.633
2407541.0,1721467281.673
2408730.0,1721467281.715
2410161.0,1721467281.754
2411342.0,1721467281.794
2413069.0,1721467281.832
2414584.0,1721467281.871
2416298.0,1721467281.91
2418214.0,1721467281.949
2418346.0,1721467281.988
2415160.0,1721467282.027
2410328.0,1721467282.066
2406900.0,1721467282.105
2404711.0,1721467282.144
2403669.0,1721467282.183
2402806.0,1721467282.222
2402866.0,1721467282.261
2403174.0,1721467282.3
2403486.0,1721467282.339
2403850.0,1721467282.378
2404391.0,1721467282.417
2404837.0,1721467282.456
2406166.0,1721467282.495
2407444.0,1721467282.534
2408942.0,1721467282.573
2410354.0,1721467282.612
2412056.0,1721467282.651
2413411.0,1721467282.69
2412617.0,1721467282.768
2408165.0,1721467282.807
2403763.0,1721467282.846
2414741.0,1721467282.729
2400521.0,1721467282.885
2399209.0,1721467282.924
2398763.0,1721467282.963
2399152.0,1721467283.002
2399158.0,1721467283.041
2399495.0,1721467283.08
2399863.0,1721467283.119
2399903.0,1721467283.158
2400224.0,1721467283.197
2401012.0,1721467283.236
2401685.0,1721467283.275
2402656.0,1721467283.314
2404195.0,1721467283.353
2405621.0,1721467283.392
2406361.0,1721467283.431
2394425.0,1721467283.548
2390877.0,1721467283.587
2388911.0,1721467283.626
2388343.0,1721467283.665
2399629.0,1721467283.509
2404325.0,1721467283.47
2388583.0,1721467283.704
2388576.0,1721467283.743
2388878.0,1721467283.782
2388891.0,1721467283.821
2389075.0,1721467283.86
2389507.0,1721467283.899
2389982.0,1721467283.938
2386490.0,1721467284.211
2380618.0,1721467284.25
2376250.0,1721467284.289
2373478.0,1721467284.328
2395527.0,1721467284.133
2372266.0,1721467284.367
2372247.0,1721467284.406
2371962.0,1721467284.445
2393406.0,1721467284.055
2394804.0,1721467284.094
2392329.0,1721467284.016
2391177.0,1721467283.977
2392449.0,1721467284.172
2371538.0,1721467284.484
2371080.0,1721467284.562
2371454.0,1721467284.64
2371107.0,1721467284.601
2371484.0,1721467284.523
2372192.0,1721467284.679
2373091.0,1721467284.718
2374011.0,1721467284.757
2375430.0,1721467284.796
2376456.0,1721467284.835
2374248.0,1721467284.874
2368039.0,1721467284.913
2361215.0,1721467284.952
2356033.0,1721467284.991
2352682.0,1721467285.03
2351141.0,1721467285.069
2350530.0,1721467285.108
2350021.0,1721467285.147
2349590.0,1721467285.186
2349351.0,1721467285.225
2348712.0,1721467285.264
2348910.0,1721467285.303
2349140.0,1721467285.342
2349803.0,1721467285.381
2350778.0,1721467285.42
2351907.0,1721467285.459
2353448.0,1721467285.498
2354858.0,1721467285.537
2356150.0,1721467285.576
2355773.0,1721467285.615
2350743.0,1721467285.654
2343382.0,1721467285.693
2337370.0,1721467285.732
2333332.0,1721467285.771
2330583.0,1721467285.81
2329741.0,1721467285.849
2329266.0,1721467285.888
2328872.0,1721467285.927
2328064.0,1721467285.966
2327844.0,1721467286.005
2327396.0,1721467286.044
2327362.0,1721467286.084
2327715.0,1721467286.124
2328492.0,1721467286.164
2329512.0,1721467286.204
2330711.0,1721467286.244
2331699.0,1721467286.284
2333253.0,1721467286.324
2334412.0,1721467286.364
2333208.0,1721467286.404
2327541.0,1721467286.444
2320286.0,1721467286.484
2315267.0,1721467286.524
2311686.0,1721467286.564
2310203.0,1721467286.604
2309802.0,1721467286.644
2309644.0,1721467286.684
2309433.0,1721467286.724
2309343.0,1721467286.764
2309080.0,1721467286.804
2309048.0,1721467286.844
2309975.0,1721467286.884
2310925.0,1721467286.924
2312476.0,1721467286.964
2314263.0,1721467287.004
2315848.0,1721467287.044
2317699.0,1721467287.084
2319746.0,1721467287.124
2321355.0,1721467287.164
2321355.0,1721467287.204
2319389.0,1721467287.244
2312954.0,1721467287.284
2306201.0,1721467287.324
2300728.0,1721467287.364
2297336.0,1721467287.404
2295517.0,1721467287.444
2295314.0,1721467287.484
2295213.0,1721467287.524
2295014.0,1721467287.564
2294986.0,1721467287.604
2294764.0,1721467287.644
2294905.0,1721467287.684
2295840.0,1721467287.724
2296622.0,1721467287.764
2298000.0,1721467287.804
2299572.0,1721467287.844
2302091.0,1721467287.884
2304356.0,1721467287.924
2306948.0,1721467287.964
2309449.0,1721467288.004
2312069.0,1721467288.044
2312612.0,1721467288.084
2308567.0,1721467288.124
2302508.0,1721467288.164
2297826.0,1721467288.204
2295044.0,1721467288.244
2293544.0,1721467288.284
2294116.0,1721467288.324
2295267.0,1721467288.364
2296107.0,1721467288.404
2296981.0,1721467288.444
2297891.0,1721467288.484
2298906.0,1721467288.524
2299783.0,1721467288.564
2301645.0,1721467288.604
2303416.0,1721467288.644
2305354.0,1721467288.684
2310084.0,1721467288.764
2307758.0,1721467288.724
2312697.0,1721467288.804
2315114.0,1721467288.844
2317557.0,1721467288.884
2318980.0,1721467288.924
2316083.0,1721467288.964
2310499.0,1721467289.004
2305629.0,1721467289.044
2302163.0,1721467289.084
2300563.0,1721467289.124
2300237.0,1721467289.164
2300745.0,1721467289.204
2301398.0,1721467289.244
2301678.0,1721467289.284
2301607.0,1721467289.324
2302096.0,1721467289.364
2302963.0,1721467289.404
2304324.0,1721467289.444
2305902.0,1721467289.484
2308000.0,1721467289.524
2310333.0,1721467289.564
2312646.0,1721467289.604
2315251.0,1721467289.644
2317536.0,1721467289.684
2318978.0,1721467289.724
2317273.0,1721467289.764
2312206.0,1721467289.804
2307313.0,1721467289.844
2303851.0,1721467289.884
2302284.0,1721467289.924
2302318.0,1721467289.964
2303202.0,1721467290.004
2303706.0,1721467290.044
2304584.0,1721467290.084
2305047.0,1721467290.124
2305782.0,1721467290.164
2306861.0,1721467290.204
2308572.0,1721467290.244
2310353.0,1721467290.284
2312271.0,1721467290.324
2314908.0,1721467290.364
2317256.0,1721467290.404
2319374.0,1721467290.444
2321734.0,1721467290.484
2322520.0,1721467290.524
2318902.0,1721467290.564
2312879.0,1721467290.604
2307494.0,1721467290.644
2303781.0,1721467290.684
2301951.0,1721467290.724
2301479.0,1721467290.764
2302020.0,1721467290.804
2302562.0,1721467290.844
2302642.0,1721467290.884
2303111.0,1721467290.924
2304593.0,1721467291.004
2303764.0,1721467290.964
2305883.0,1721467291.044
2307616.0,1721467291.084
2309619.0,1721467291.124
2313758.0,1721467291.204
2316032.0,1721467291.244
2318153.0,1721467291.284
2318899.0,1721467291.324
2315240.0,1721467291.364
2311551.0,1721467291.164
2308440.0,1721467291.404
2302752.0,1721467291.444
2299134.0,1721467291.484
2297371.0,1721467291.604
2296880.0,1721467291.564
2297320.0,1721467291.524
2297514.0,1721467291.644
2297883.0,1721467291.684
2298376.0,1721467291.764
2299029.0,1721467291.804
2305814.0,1721467291.964
2307650.0,1721467292.004
2301770.0,1721467291.884
2300057.0,1721467291.844
2303522.0,1721467291.924
2309844.0,1721467292.044
2298019.0,1721467291.724
2312319.0,1721467292.084
2314483.0,1721467292.124
2315957.0,1721467292.164
2312877.0,1721467292.204
2306595.0,1721467292.244
2300857.0,1721467292.284
2296633.0,1721467292.324
2294179.0,1721467292.364
2293780.0,1721467292.404
2293895.0,1721467292.444
2293994.0,1721467292.484
2294201.0,1721467292.564
2294308.0,1721467292.604
2294652.0,1721467292.644
2295771.0,1721467292.684
2296838.0,1721467292.724
2298583.0,1721467292.764
2300374.0,1721467292.804
2302449.0,1721467292.844
2304541.0,1721467292.884
2294140.0,1721467292.524
2306458.0,1721467292.924
2308892.0,1721467292.964
2310283.0,1721467293.004
2307428.0,1721467293.044
2295857.0,1721467293.124
2292572.0,1721467293.164
2301624.0,1721467293.084
2291198.0,1721467293.204
2291615.0,1721467293.284
2292155.0,1721467293.324
2292102.0,1721467293.364
2292493.0,1721467293.404
2292876.0,1721467293.444
2293945.0,1721467293.484
2293945.0,1721467293.524
2290935.0,1721467293.244
2295337.0,1721467293.564
2296889.0,1721467293.604
2299039.0,1721467293.644
2301409.0,1721467293.684
2303657.0,1721467293.724
2305885.0,1721467293.765
2308487.0,1721467293.806
2310779.0,1721467293.846
2311215.0,1721467293.885
2307166.0,1721467293.925
2301147.0,1721467293.967
2295750.0,1721467294.006
2292619.0,1721467294.046
2291234.0,1721467294.087
2290916.0,1721467294.126
2291711.0,1721467294.166
2292450.0,1721467294.208
2293050.0,1721467294.246
2293534.0,1721467294.286
2294499.0,1721467294.327
2295780.0,1721467294.366
2297250.0,1721467294.407
2301455.0,1721467294.487
2299409.0,1721467294.448
2303873.0,1721467294.527
2306366.0,1721467294.568
2311408.0,1721467294.647
2309021.0,1721467294.608
2313702.0,1721467294.688
2313574.0,1721467294.727
2308604.0,1721467294.768
2301220.0,1721467294.809
2294775.0,1721467294.848
2290381.0,1721467294.888
2287437.0,1721467294.929
2286384.0,1721467294.968
2286022.0,1721467295.009
2285463.0,1721467295.049
2284892.0,1721467295.088
2284408.0,1721467295.128
2284558.0,1721467295.169
2286744.0,1721467295.29
2285442.0,1721467295.249
2288270.0,1721467295.329
2284798.0,1721467295.209
2290380.0,1721467295.369
2292483.0,1721467295.411
2294884.0,1721467295.449
2297197.0,1721467295.489
2299789.0,1721467295.53
2294241.0,1721467295.61
2299336.0,1721467295.569
2287799.0,1721467295.65
2282971.0,1721467295.689
2280099.0,1721467295.73
2278925.0,1721467295.771
2278607.0,1721467295.81
2279432.0,1721467295.85
2279950.0,1721467295.891
2279797.0,1721467295.93
2279986.0,1721467295.97
2280612.0,1721467296.012
2281660.0,1721467296.05
2283124.0,1721467296.09
2284850.0,1721467296.132
2287036.0,1721467296.171
2288810.0,1721467296.211
2290955.0,1721467296.252
2293212.0,1721467296.291
2292327.0,1721467296.412
2295994.0,1721467296.372
2295421.0,1721467296.331
2285624.0,1721467296.451
2277404.0,1721467296.531
2276536.0,1721467296.571
2277033.0,1721467296.613
2280540.0,1721467296.492
2277633.0,1721467296.651
2278064.0,1721467296.692
2278608.0,1721467296.772
2278222.0,1721467296.733
2280064.0,1721467296.853
2279085.0,1721467296.812
2281108.0,1721467296.892
2282539.0,1721467296.932
2284225.0,1721467296.973
2286154.0,1721467297.013
2288396.0,1721467297.052
2290478.0,1721467297.093
2292168.0,1721467297.132
2290405.0,1721467297.172
2278555.0,1721467297.252
2284692.0,1721467297.214
2274446.0,1721467297.292
2271770.0,1721467297.373
2272331.0,1721467297.333
2272108.0,1721467297.413
2272745.0,1721467297.454
2273216.0,1721467297.493
2273243.0,1721467297.533
2274029.0,1721467297.574
2274785.0,1721467297.614
2276183.0,1721467297.653
2277889.0,1721467297.694
2279764.0,1721467297.733
2282356.0,1721467297.773
2284630.0,1721467297.815
2287247.0,1721467297.853
2289047.0,1721467297.893
2286805.0,1721467297.935
2280439.0,1721467297.974
2273648.0,1721467298.014
2269201.0,1721467298.055
2266225.0,1721467298.094
2264708.0,1721467298.134
2264526.0,1721467298.175
2264703.0,1721467298.215
2264937.0,1721467298.254
2264814.0,1721467298.295
2265228.0,1721467298.334
2266018.0,1721467298.374
2267153.0,1721467298.416
2268705.0,1721467298.454
2270684.0,1721467298.494
2273054.0,1721467298.535
2275156.0,1721467298.574
2277901.0,1721467298.615
2280636.0,1721467298.656
2283258.0,1721467298.695
2285033.0,1721467298.735
2282948.0,1721467298.776
2276672.0,1721467298.816
2269860.0,1721467298.855
2264552.0,1721467298.896
2260781.0,1721467298.935
2259146.0,1721467298.975
2258352.0,1721467299.017
2258420.0,1721467299.055
2258498.0,1721467299.095
2258554.0,1721467299.136
2258479.0,1721467299.175
2258969.0,1721467299.216
2261496.0,1721467299.293
2260161.0,1721467299.257
2263328.0,1721467299.334
2265588.0,1721467299.375
2267887.0,1721467299.415
2270268.0,1721467299.455
2272447.0,1721467299.496
2274836.0,1721467299.535
2274161.0,1721467299.575
2269078.0,1721467299.617
2261500.0,1721467299.655
2255610.0,1721467299.695
2251590.0,1721467299.735
2249207.0,1721467299.774
2248309.0,1721467299.815
2248278.0,1721467299.855
2248422.0,1721467299.894
2248299.0,1721467299.933
2248478.0,1721467299.97
2248676.0,1721467300.01
2249181.0,1721467300.049
2250409.0,1721467300.09
2252259.0,1721467300.129
2254172.0,1721467300.17
2256591.0,1721467300.211
2258818.0,1721467300.25
2261031.0,1721467300.29
2263137.0,1721467300.331
2264952.0,1721467300.37
2261618.0,1721467300.411
2254327.0,1721467300.451
2247144.0,1721467300.49
2241993.0,1721467300.53
2238506.0,1721467300.571
2237032.0,1721467300.611
2236589.0,1721467300.651
2236250.0,1721467300.691
2235637.0,1721467300.728
2235035.0,1721467300.764
2234761.0,1721467300.798
2235025.0,1721467300.835
2235639.0,1721467300.875
2236595.0,1721467300.916
2238372.0,1721467300.956
2239943.0,1721467300.997
2241561.0,1721467301.037
2243473.0,1721467301.076
2245162.0,1721467301.116
2243492.0,1721467301.157
2236587.0,1721467301.197
2228493.0,1721467301.236
2222078.0,1721467301.277
2217340.0,1721467301.316
2214996.0,1721467301.356
2214012.0,1721467301.398
2213591.0,1721467301.436
2213312.0,1721467301.476
2212785.0,1721467301.517
2212220.0,1721467301.556
2212738.0,1721467301.597
2213209.0,1721467301.638
2214523.0,1721467301.677
2215887.0,1721467301.717
2217853.0,1721467301.759
2219737.0,1721467301.796
2221867.0,1721467301.835
2223989.0,1721467301.877
2225905.0,1721467301.916
2225672.0,1721467301.956
2219336.0,1721467301.998
2210240.0,1721467302.037
2202779.0,1721467302.077
2196792.0,1721467302.118
2193345.0,1721467302.157
2191572.0,1721467302.199
2190731.0,1721467302.238
2190146.0,1721467302.274
2189132.0,1721467302.314
2188609.0,1721467302.356
2188560.0,1721467302.395
2188569.0,1721467302.435
2189429.0,1721467302.476
2190791.0,1721467302.515
2192485.0,1721467302.555
2194726.0,1721467302.597
2196537.0,1721467302.635
2198714.0,1721467302.675
2201220.0,1721467302.716
2203715.0,1721467302.755
2206245.0,1721467302.796
2207434.0,1721467302.836
2203839.0,1721467302.875
2196190.0,1721467302.915
2188505.0,1721467302.956
2183540.0,1721467302.997
2180039.0,1721467303.037
2178545.0,1721467303.078
2178223.0,1721467303.117
2178080.0,1721467303.158
2177714.0,1721467303.197
2177265.0,1721467303.236
2177586.0,1721467303.276
2178328.0,1721467303.318
2179433.0,1721467303.357
2181073.0,1721467303.397
2182988.0,1721467303.434
2184993.0,1721467303.473
2187225.0,1721467303.513
2189557.0,1721467303.554
2191836.0,1721467303.594
2194151.0,1721467303.634
2196769.0,1721467303.675
2199641.0,1721467303.714
2201772.0,1721467303.754
2200796.0,1721467303.795
2195294.0,1721467303.834
2188955.0,1721467303.874
2184390.0,1721467303.915
2181586.0,1721467303.954
2180876.0,1721467303.995
2181148.0,1721467304.035
2181635.0,1721467304.074
2181889.0,1721467304.114
2182393.0,1721467304.155
2182746.0,1721467304.195
2183621.0,1721467304.234
2185083.0,1721467304.275
2186797.0,1721467304.314
2188844.0,1721467304.354
2191346.0,1721467304.396
2193632.0,1721467304.435
2196410.0,1721467304.475
2198753.0,1721467304.516
2201550.0,1721467304.555
2204118.0,1721467304.595
2207134.0,1721467304.636
2209195.0,1721467304.675
2207857.0,1721467304.715
2203290.0,1721467304.756
2198569.0,1721467304.796
2196010.0,1721467304.835
2195266.0,1721467304.876
2195574.0,1721467304.915
2196801.0,1721467304.955
2198054.0,1721467304.997
2199193.0,1721467305.035
2200180.0,1721467305.075
2201418.0,1721467305.116
2203268.0,1721467305.155
2205133.0,1721467305.196
2207568.0,1721467305.237
2209969.0,1721467305.276
2212945.0,1721467305.316
2215589.0,1721467305.357
2218536.0,1721467305.397
2221451.0,1721467305.436
2224445.0,1721467305.477
2227709.0,1721467305.516
2230323.0,1721467305.556
2230411.0,1721467305.598
2226574.0,1721467305.636
2222414.0,1721467305.676
2219374.0,1721467305.717
2218278.0,1721467305.75
2218344.0,1721467305.792
2219440.0,1721467305.831
2220775.0,1721467305.87
2221914.0,1721467305.911
2223078.0,1721467305.952
2224491.0,1721467305.991
2225892.0,1721467306.031
2229764.0,1721467306.111
2232219.0,1721467306.151
2234678.0,1721467306.193
2237659.0,1721467306.231
2240270.0,1721467306.271
2227588.0,1721467306.072
2245671.0,1721467306.351
2248358.0,1721467306.392
2248553.0,1721467306.433
2244832.0,1721467306.472
2240243.0,1721467306.512
2236607.0,1721467306.553
2234816.0,1721467306.592
2243194.0,1721467306.312
2234114.0,1721467306.632
2235308.0,1721467306.712
2234377.0,1721467306.673
2236381.0,1721467306.752
2237060.0,1721467306.794
2238033.0,1721467306.832
2238913.0,1721467306.872
2240470.0,1721467306.913
2242185.0,1721467306.952
2244113.0,1721467306.993
2246672.0,1721467307.033
2248962.0,1721467307.073
2251582.0,1721467307.113
2254176.0,1721467307.154
2256773.0,1721467307.193
2259230.0,1721467307.233
2259731.0,1721467307.274
2255946.0,1721467307.313
2250888.0,1721467307.353
2246719.0,1721467307.395
2244230.0,1721467307.433
2243160.0,1721467307.514
2243547.0,1721467307.553
2244004.0,1721467307.594
2244194.0,1721467307.634
2244576.0,1721467307.674
2245217.0,1721467307.714
2246310.0,1721467307.755
2247448.0,1721467307.794
2249207.0,1721467307.834
2250844.0,1721467307.875
2252940.0,1721467307.914
2254986.0,1721467307.954
2257230.0,1721467307.996
2257280.0,1721467308.034
2253419.0,1721467308.074
2247293.0,1721467308.115
2242353.0,1721467308.154
2239454.0,1721467308.195
2243071.0,1721467307.473
2237831.0,1721467308.236
2237932.0,1721467308.275
2238490.0,1721467308.315
2239248.0,1721467308.435
2239059.0,1721467308.395
2238683.0,1721467308.356
2239776.0,1721467308.476
2242059.0,1721467308.555
2245925.0,1721467308.635
2250547.0,1721467308.716
2240676.0,1721467308.515
2243654.0,1721467308.597
2248328.0,1721467308.675
2252795.0,1721467308.755
2253615.0,1721467308.796
2250170.0,1721467308.837
2243561.0,1721467308.876
2237586.0,1721467308.916
2233973.0,1721467308.957
2231774.0,1721467308.996
2231180.0,1721467309.036
2231169.0,1721467309.077
2231348.0,1721467309.116
2231243.0,1721467309.156
2230830.0,1721467309.198
2231250.0,1721467309.236
2231807.0,1721467309.276
2233030.0,1721467309.317
2234572.0,1721467309.356
2236410.0,1721467309.397
2238195.0,1721467309.438
2240113.0,1721467309.477
2242219.0,1721467309.517
2241202.0,1721467309.558
2235231.0,1721467309.598
2227544.0,1721467309.637
2221210.0,1721467309.678
2217324.0,1721467309.717
2215417.0,1721467309.757
2214795.0,1721467309.799
2214994.0,1721467309.837
2214974.0,1721467309.877
2214938.0,1721467309.918
2215282.0,1721467309.957
2215693.0,1721467309.998
2216634.0,1721467310.039
2218029.0,1721467310.078
2219816.0,1721467310.118
2221975.0,1721467310.159
2224039.0,1721467310.199
2226257.0,1721467310.238
2228607.0,1721467310.279
2230967.0,1721467310.318
2231502.0,1721467310.358
2227194.0,1721467310.4
2219701.0,1721467310.438
2213653.0,1721467310.478
2209370.0,1721467310.52
2207030.0,1721467310.559
2205969.0,1721467310.599
2206216.0,1721467310.64
2206355.0,1721467310.679
2206287.0,1721467310.719
2206368.0,1721467310.76
2206856.0,1721467310.8
2208103.0,1721467310.839
2209554.0,1721467310.88
2211064.0,1721467310.919
2213115.0,1721467310.959
2215324.0,1721467311.001
2217868.0,1721467311.04
2220191.0,1721467311.08
2222570.0,1721467311.121
2225101.0,1721467311.16
2227715.0,1721467311.201
2228305.0,1721467311.241
2223845.0,1721467311.28
2217424.0,1721467311.32
2212302.0,1721467311.361
2209363.0,1721467311.401
2207776.0,1721467311.44
2207932.0,1721467311.481
2208157.0,1721467311.521
2208734.0,1721467311.561
2208992.0,1721467311.602
2209291.0,1721467311.641
2209960.0,1721467311.681
2210793.0,1721467311.722
2212172.0,1721467311.761
2213999.0,1721467311.802
2216284.0,1721467311.842
2218696.0,1721467311.881
2220879.0,1721467311.921
2223225.0,1721467311.962
2225297.0,1721467312.002
2227675.0,1721467312.041
2227135.0,1721467312.083
2222146.0,1721467312.122
2217144.0,1721467312.162
2213666.0,1721467312.204
2211664.0,1721467312.242
2211591.0,1721467312.282
2212330.0,1721467312.323
2213398.0,1721467312.362
2214283.0,1721467312.403
2215086.0,1721467312.443
2215988.0,1721467312.482
2217569.0,1721467312.522
2219260.0,1721467312.563
2221301.0,1721467312.603
2223748.0,1721467312.643
2226305.0,1721467312.684
2229253.0,1721467312.723
2231974.0,1721467312.757
2234526.0,1721467312.796
2237215.0,1721467312.833
2236418.0,1721467312.873
2232006.0,1721467312.914
2226779.0,1721467312.953
2222906.0,1721467312.994
2220950.0,1721467313.035
2220628.0,1721467313.074
2221043.0,1721467313.114
2222173.0,1721467313.146
2223115.0,1721467313.185
2224100.0,1721467313.225
2225077.0,1721467313.266
2226266.0,1721467313.305
2227952.0,1721467313.345
2230203.0,1721467313.387
2232364.0,1721467313.425
2234867.0,1721467313.465
2237523.0,1721467313.506
2240324.0,1721467313.545
2243324.0,1721467313.586
2244478.0,1721467313.627
2241632.0,1721467313.666
2235904.0,1721467313.706
2231296.0,1721467313.747
2227776.0,1721467313.786
2226188.0,1721467313.827
2225945.0,1721467313.864
2226355.0,1721467313.904
2226936.0,1721467313.938
2227444.0,1721467313.977
2227821.0,1721467314.012
2228693.0,1721467314.052
2229907.0,1721467314.094
2231284.0,1721467314.133
2233086.0,1721467314.174
2235430.0,1721467314.214
2237465.0,1721467314.254
2239734.0,1721467314.294
2242225.0,1721467314.335
2244342.0,1721467314.373
2243520.0,1721467314.412
2238317.0,1721467314.453
2231731.0,1721467314.492
2226789.0,1721467314.532
2223445.0,1721467314.574
2222057.0,1721467314.612
2221610.0,1721467314.652
2221858.0,1721467314.693
2221631.0,1721467314.732
2221618.0,1721467314.773
2221534.0,1721467314.814
2221892.0,1721467314.853
2222547.0,1721467314.893
2223567.0,1721467314.934
2225050.0,1721467314.973
2226646.0,1721467315.013
2228285.0,1721467315.054
2230128.0,1721467315.093
2232142.0,1721467315.133
2234030.0,1721467315.175
2234874.0,1721467315.214
2231056.0,1721467315.254
2224579.0,1721467315.295
2219123.0,1721467315.333
2215661.0,1721467315.374
2214289.0,1721467315.414
2214212.0,1721467315.453
2214631.0,1721467315.494
2214806.0,1721467315.535
2214894.0,1721467315.575
2215202.0,1721467315.614
2215716.0,1721467315.654
2216868.0,1721467315.693
2218358.0,1721467315.733
2220269.0,1721467315.775
2222031.0,1721467315.814
2224350.0,1721467315.854
2224350.0,1721467315.89
2226717.0,1721467315.929
2229199.0,1721467315.97
2231557.0,1721467316.01
2230687.0,1721467316.049
2225450.0,1721467316.089
2219359.0,1721467316.131
2215248.0,1721467316.17
2212745.0,1721467316.21
2211611.0,1721467316.251
2212060.0,1721467316.29
2212592.0,1721467316.33
2213132.0,1721467316.372
2213816.0,1721467316.41
2214123.0,1721467316.45
2215121.0,1721467316.491
2216833.0,1721467316.53
2218864.0,1721467316.571
2220859.0,1721467316.605
2223363.0,1721467316.644
2225660.0,1721467316.676
2228198.0,1721467316.715
2230740.0,1721467316.755
2233394.0,1721467316.794
2235058.0,1721467316.836
2232935.0,1721467316.875
2227288.0,1721467316.915
2222392.0,1721467316.957
2219030.0,1721467316.996
2217368.0,1721467317.036
2217488.0,1721467317.075
2218153.0,1721467317.114
2218958.0,1721467317.155
2219637.0,1721467317.196
2220381.0,1721467317.228
2221395.0,1721467317.268
2222774.0,1721467317.309
2224707.0,1721467317.349
2226784.0,1721467317.388
2229114.0,1721467317.43
2231550.0,1721467317.469
2234010.0,1721467317.509
2236821.0,1721467317.55
2239128.0,1721467317.589
2238646.0,1721467317.629
2234786.0,1721467317.67
2229791.0,1721467317.706
2226219.0,1721467317.747
2224059.0,1721467317.787
2223838.0,1721467317.826
2224464.0,1721467317.866
2225534.0,1721467317.907
2226086.0,1721467317.947
2227085.0,1721467317.987
2227905.0,1721467318.028
2228970.0,1721467318.067
2230578.0,1721467318.107
2232117.0,1721467318.15
2234535.0,1721467318.188
2236650.0,1721467318.229
2239160.0,1721467318.27
2240972.0,1721467318.309
2239832.0,1721467318.347
2235487.0,1721467318.388
2231043.0,1721467318.427
2228610.0,1721467318.467
2227418.0,1721467318.508
2227881.0,1721467318.548
2229121.0,1721467318.587
2230031.0,1721467318.628
2231030.0,1721467318.667
2231797.0,1721467318.708
2232727.0,1721467318.749
2234205.0,1721467318.788
2236114.0,1721467318.828
2238008.0,1721467318.869
2240349.0,1721467318.908
2242427.0,1721467318.949
2244902.0,1721467318.989
2247367.0,1721467319.028
2246499.0,1721467319.111
2248877.0,1721467319.069
2241360.0,1721467319.15
2236754.0,1721467319.19
2234178.0,1721467319.232
2233113.0,1721467319.271
2233616.0,1721467319.311
2234416.0,1721467319.353
2235774.0,1721467319.432
2236685.0,1721467319.473
2237552.0,1721467319.512
2238782.0,1721467319.553
2235200.0,1721467319.392
2240687.0,1721467319.593
2242652.0,1721467319.632
2244716.0,1721467319.672
2247418.0,1721467319.713
2249626.0,1721467319.753
2252468.0,1721467319.792
2254630.0,1721467319.833
2257622.0,1721467319.872
2258704.0,1721467319.912
2255378.0,1721467319.954
2242739.0,1721467320.074
2241239.0,1721467320.113
2249958.0,1721467319.993
2245215.0,1721467320.033
2241260.0,1721467320.153
2241987.0,1721467320.195
2242773.0,1721467320.234
2243224.0,1721467320.272
2243907.0,1721467320.313
2244716.0,1721467320.353
2245783.0,1721467320.393
2251969.0,1721467320.514
2254000.0,1721467320.556
2256365.0,1721467320.592
2258734.0,1721467320.632
2261459.0,1721467320.673
2263923.0,1721467320.712
2266584.0,1721467320.753
2249528.0,1721467320.473
2247769.0,1721467320.434
2269351.0,1721467320.793
2271661.0,1721467320.825
2270196.0,1721467320.865
2265140.0,1721467320.906
2259570.0,1721467320.946
2256076.0,1721467320.985
2253787.0,1721467321.026
2252994.0,1721467321.066
2253566.0,1721467321.106
2254248.0,1721467321.147
2254696.0,1721467321.186
2255328.0,1721467321.226
2255813.0,1721467321.267
2256778.0,1721467321.306
2258035.0,1721467321.347
2259696.0,1721467321.387
2261770.0,1721467321.426
2264008.0,1721467321.466
2266136.0,1721467321.507
2268624.0,1721467321.548
2271239.0,1721467321.586
2273782.0,1721467321.622
2276106.0,1721467321.652
2278612.0,1721467321.692
2280523.0,1721467321.734
2279546.0,1721467321.772
2274972.0,1721467321.813
2269607.0,1721467321.854
2265747.0,1721467321.893
2264179.0,1721467321.934
2263816.0,1721467321.973
2264469.0,1721467322.012
2264469.0,1721467322.049
2265523.0,1721467322.09
2266338.0,1721467322.13
2267202.0,1721467322.17
2267978.0,1721467322.211
2268661.0,1721467322.25
2270171.0,1721467322.29
2272045.0,1721467322.332
2274108.0,1721467322.37
2276445.0,1721467322.41
2278823.0,1721467322.451
2281228.0,1721467322.49
2283814.0,1721467322.531
2286563.0,1721467322.572
2289157.0,1721467322.611
2291809.0,1721467322.651
2290813.0,1721467322.692
2286890.0,1721467322.732
2282008.0,1721467322.772
2278818.0,1721467322.813
2277795.0,1721467322.852
2278030.0,1721467322.892
2279037.0,1721467322.934
2280227.0,1721467322.973
2281133.0,1721467323.013
2282026.0,1721467323.054
2282966.0,1721467323.093
2284450.0,1721467323.134
2286144.0,1721467323.175
2288287.0,1721467323.214
2290335.0,1721467323.254
2292949.0,1721467323.289
2295472.0,1721467323.329
2298132.0,1721467323.369
2300388.0,1721467323.41
2303119.0,1721467323.449
2305469.0,1721467323.489
2306136.0,1721467323.531
2302431.0,1721467323.569
2296505.0,1721467323.609
2291988.0,1721467323.65
2289081.0,1721467323.689
2287965.0,1721467323.73
2287744.0,1721467323.771
2288630.0,1721467323.81
2289338.0,1721467323.85
2289722.0,1721467323.891
2290416.0,1721467323.931
2291035.0,1721467323.971
2292416.0,1721467324.012
2293945.0,1721467324.051
2295595.0,1721467324.092
2298144.0,1721467324.134
2300202.0,1721467324.173
2302564.0,1721467324.212
2304901.0,1721467324.254
2307199.0,1721467324.293
2309359.0,1721467324.334
2307482.0,1721467324.374
2301846.0,1721467324.404
2295850.0,1721467324.445
2291839.0,1721467324.486
2289800.0,1721467324.525
2289203.0,1721467324.565
2289486.0,1721467324.606
2290147.0,1721467324.645
2290786.0,1721467324.685
2290892.0,1721467324.727
2291266.0,1721467324.765
2292177.0,1721467324.805
2293230.0,1721467324.846
2295110.0,1721467324.886
2296835.0,1721467324.926
2298894.0,1721467324.967
2300912.0,1721467325.006
2303536.0,1721467325.046
2305604.0,1721467325.088
2307796.0,1721467325.124
2309513.0,1721467325.163
2307283.0,1721467325.196
2301136.0,1721467325.234
2295123.0,1721467325.274
2291200.0,1721467325.316
2289069.0,1721467325.354
2288634.0,1721467325.395
2288677.0,1721467325.436
2289294.0,1721467325.475
2289382.0,1721467325.512
2289475.0,1721467325.552
2289664.0,1721467325.591
2290240.0,1721467325.631
2291004.0,1721467325.673
2292617.0,1721467325.712
2294295.0,1721467325.752
2296212.0,1721467325.793
2298282.0,1721467325.832
2300353.0,1721467325.872
2302621.0,1721467325.914
2304733.0,1721467325.952
2304138.0,1721467325.992
2299141.0,1721467326.033
2292933.0,1721467326.072
2288331.0,1721467326.113
2286285.0,1721467326.153
2285530.0,1721467326.192
2285911.0,1721467326.233
2286571.0,1721467326.275
2286860.0,1721467326.315
2286892.0,1721467326.354
2287426.0,1721467326.396
2288050.0,1721467326.435
2289473.0,1721467326.475
2291012.0,1721467326.517
2292931.0,1721467326.556
2294937.0,1721467326.596
2299869.0,1721467326.674
2297422.0,1721467326.635
2302256.0,1721467326.715
2302491.0,1721467326.746
2297980.0,1721467326.785
2291213.0,1721467326.825
2285439.0,1721467326.866
2280050.0,1721467326.945
2282058.0,1721467326.906
2279514.0,1721467326.987
2280293.0,1721467327.026
2280578.0,1721467327.066
2280764.0,1721467327.108
2280870.0,1721467327.146
2281258.0,1721467327.186
2282270.0,1721467327.227
2283657.0,1721467327.266
2285194.0,1721467327.307
2286953.0,1721467327.347
2289432.0,1721467327.386
2291478.0,1721467327.426
2293931.0,1721467327.463
2293982.0,1721467327.497
2289499.0,1721467327.533
2281954.0,1721467327.575
2276138.0,1721467327.614
2272144.0,1721467327.654
2270151.0,1721467327.696
2270150.0,1721467327.733
2270181.0,1721467327.773
2270500.0,1721467327.815
2270750.0,1721467327.854
2271084.0,1721467327.894
2271503.0,1721467327.935
2271503.0,1721467327.968
2272256.0,1721467328.009
2273597.0,1721467328.05
2275326.0,1721467328.089
2277293.0,1721467328.129
2279075.0,1721467328.17
2281327.0,1721467328.209
2283611.0,1721467328.249
2285497.0,1721467328.291
2284287.0,1721467328.329
2277980.0,1721467328.369
2270816.0,1721467328.41
2265090.0,1721467328.449
2261882.0,1721467328.49
2260605.0,1721467328.531
2260224.0,1721467328.57
2260225.0,1721467328.61
2259971.0,1721467328.651
2259681.0,1721467328.685
2259645.0,1721467328.716
2259920.0,1721467328.758
2260633.0,1721467328.795
2261813.0,1721467328.835
2263297.0,1721467328.877
2265194.0,1721467328.916
2267374.0,1721467328.956
2269204.0,1721467328.997
2271545.0,1721467329.036
2273307.0,1721467329.077
2271316.0,1721467329.118
2264574.0,1721467329.155
2258049.0,1721467329.195
2253545.0,1721467329.237
2251079.0,1721467329.276
2250682.0,1721467329.311
2250921.0,1721467329.352
2251249.0,1721467329.391
2251785.0,1721467329.431
2252258.0,1721467329.473
2252468.0,1721467329.512
2253751.0,1721467329.552
2255011.0,1721467329.593
2256544.0,1721467329.683
2258852.0,1721467329.724
2261151.0,1721467329.764
2263354.0,1721467329.803
2265848.0,1721467329.843
2268422.0,1721467329.884
2270862.0,1721467329.924
2270496.0,1721467329.964
2265026.0,1721467330.005
2256945.0,1721467330.044
2250967.0,1721467330.084
2247005.0,1721467330.127
2245101.0,1721467330.165
2244798.0,1721467330.206
2244863.0,1721467330.247
2245062.0,1721467330.286
2245347.0,1721467330.328
2246070.0,1721467330.406
2247074.0,1721467330.446
2245419.0,1721467330.366
2248604.0,1721467330.488
2250244.0,1721467330.527
2252665.0,1721467330.568
2254877.0,1721467330.609
2257534.0,1721467330.648
2259942.0,1721467330.688
2262685.0,1721467330.73
2265336.0,1721467330.768
2267945.0,1721467330.808
2267533.0,1721467330.849
2262268.0,1721467330.889
2254808.0,1721467330.929
2248652.0,1721467330.97
2245248.0,1721467331.009
2243418.0,1721467331.049
2243439.0,1721467331.09
2243782.0,1721467331.13
2243763.0,1721467331.169
2244147.0,1721467331.21
2244190.0,1721467331.249
2244817.0,1721467331.289
2246046.0,1721467331.33
2247428.0,1721467331.367
2249170.0,1721467331.407
2251374.0,1721467331.448
2253926.0,1721467331.487
2256251.0,1721467331.528
2258979.0,1721467331.569
2261470.0,1721467331.608
2264015.0,1721467331.648
2266393.0,1721467331.689
2265546.0,1721467331.729
2259493.0,1721467331.769
2247978.0,1721467331.849
2252866.0,1721467331.81
2245431.0,1721467331.889
2244438.0,1721467331.931
2244735.0,1721467331.969
2245172.0,1721467332.009
2245275.0,1721467332.05
2244782.0,1721467332.089
2245091.0,1721467332.13
2245727.0,1721467332.17
2246541.0,1721467332.209
2247898.0,1721467332.249
2249836.0,1721467332.291
2251994.0,1721467332.33
2254171.0,1721467332.37
2256377.0,1721467332.412
2259053.0,1721467332.451
2261482.0,1721467332.489
2261411.0,1721467332.529
2256643.0,1721467332.567
2249996.0,1721467332.607
2244737.0,1721467332.649
2242114.0,1721467332.688
2241099.0,1721467332.729
2241590.0,1721467332.77
2242211.0,1721467332.809
2242785.0,1721467332.849
2243148.0,1721467332.888
2243755.0,1721467332.927
2244699.0,1721467332.967
2245943.0,1721467333.009
2247603.0,1721467333.048
2249652.0,1721467333.088
2252427.0,1721467333.13
2254939.0,1721467333.165
2257823.0,1721467333.205
2260521.0,1721467333.246
2262978.0,1721467333.285
2261738.0,1721467333.326
2255475.0,1721467333.366
2247790.0,1721467333.405
2242953.0,1721467333.445
2239839.0,1721467333.486
2238374.0,1721467333.526
2238397.0,1721467333.565
2238870.0,1721467333.606
2239240.0,1721467333.645
2239341.0,1721467333.685
2239602.0,1721467333.727
2240290.0,1721467333.766
2241833.0,1721467333.806
2243538.0,1721467333.847
2245391.0,1721467333.887
2247410.0,1721467333.928
2249898.0,1721467333.969
2252146.0,1721467334.008
2254273.0,1721467334.048
2253067.0,1721467334.089
2246382.0,1721467334.129
2238941.0,1721467334.169
2233443.0,1721467334.21
2230103.0,1721467334.249
2228306.0,1721467334.29
2228143.0,1721467334.329
2228328.0,1721467334.368
2228218.0,1721467334.402
2228048.0,1721467334.443
2227988.0,1721467334.483
2228591.0,1721467334.523
2229511.0,1721467334.564
2230743.0,1721467334.603
2232448.0,1721467334.643
2234343.0,1721467334.684
2236361.0,1721467334.724
2238787.0,1721467334.763
2240941.0,1721467334.804
2239234.0,1721467334.843
2232186.0,1721467334.884
2223819.0,1721467334.925
2217389.0,1721467334.964
2213409.0,1721467335.004
2210897.0,1721467335.045
2209837.0,1721467335.078
2209317.0,1721467335.112
2208266.0,1721467335.151
2207521.0,1721467335.187
2206946.0,1721467335.227
2206662.0,1721467335.268
2206839.0,1721467335.308
2207691.0,1721467335.348
2208752.0,1721467335.389
2210324.0,1721467335.429
2212073.0,1721467335.466
2212073.0,1721467335.505
2214061.0,1721467335.544
2215727.0,1721467335.584
2215158.0,1721467335.625
2208471.0,1721467335.664
2199938.0,1721467335.706
2193257.0,1721467335.745
2189253.0,1721467335.784
2186863.0,1721467335.824
2186342.0,1721467335.865
2186083.0,1721467335.905
2185383.0,1721467335.944
2184276.0,1721467335.986
2184438.0,1721467336.025
2184289.0,1721467336.065
2185096.0,1721467336.106
2186028.0,1721467336.145
2187259.0,1721467336.185
2189258.0,1721467336.223
2190980.0,1721467336.259
2193247.0,1721467336.293
2194647.0,1721467336.334
2190792.0,1721467336.37
2182304.0,1721467336.408
2174283.0,1721467336.45
2168138.0,1721467336.489
2164137.0,1721467336.529
2162378.0,1721467336.57
2161719.0,1721467336.609
2161608.0,1721467336.65
2160980.0,1721467336.692
2160602.0,1721467336.73
2160482.0,1721467336.768
2160872.0,1721467336.81
2161564.0,1721467336.843
2163096.0,1721467336.884
2164667.0,1721467336.924
2166992.0,1721467336.963
2169192.0,1721467337.003
2171487.0,1721467337.044
2173983.0,1721467337.084
2175688.0,1721467337.124
2171657.0,1721467337.165
2163264.0,1721467337.204
2155051.0,1721467337.244
2149006.0,1721467337.286
2144932.0,1721467337.324
2142800.0,1721467337.364
2142835.0,1721467337.405
2142966.0,1721467337.444
2143169.0,1721467337.485
2143551.0,1721467337.523
2144093.0,1721467337.559
2144958.0,1721467337.594
2146565.0,1721467337.632
2148510.0,1721467337.668
2151328.0,1721467337.708
2154299.0,1721467337.749
2157447.0,1721467337.788
2160261.0,1721467337.829
2163471.0,1721467337.871
2166666.0,1721467337.909
2169833.0,1721467337.947
2169833.0,1721467337.981
2172961.0,1721467338.02
2171532.0,1721467338.06
2164782.0,1721467338.101
2157454.0,1721467338.14
2152085.0,1721467338.18
2148424.0,1721467338.221
2146875.0,1721467338.261
2146826.0,1721467338.3
2147246.0,1721467338.341
2147581.0,1721467338.38
2147945.0,1721467338.421
2148259.0,1721467338.462
2149508.0,1721467338.501
2151032.0,1721467338.541
2152789.0,1721467338.582
2155118.0,1721467338.621
2157788.0,1721467338.663
2160705.0,1721467338.699
2163487.0,1721467338.731
2166454.0,1721467338.771
2169399.0,1721467338.81
2172471.0,1721467338.85
2175768.0,1721467338.89
2177980.0,1721467338.931
2175580.0,1721467338.97
2169313.0,1721467339.01
2163479.0,1721467339.052
2159937.0,1721467339.082
2158079.0,1721467339.122
2158243.0,1721467339.163
2159292.0,1721467339.202
2160197.0,1721467339.243
2160783.0,1721467339.284
2161653.0,1721467339.323
2162482.0,1721467339.363
2163910.0,1721467339.404
2165849.0,1721467339.444
2167997.0,1721467339.483
2170386.0,1721467339.524
2173032.0,1721467339.563
2176153.0,1721467339.603
2178824.0,1721467339.645
2181718.0,1721467339.684
2185022.0,1721467339.724
2187885.0,1721467339.765
2189468.0,1721467339.801
2186484.0,1721467339.842
2180587.0,1721467339.876
2176459.0,1721467339.911
2174358.0,1721467339.99
2174500.0,1721467339.948
2177306.0,1721467340.069
2175663.0,1721467340.03
2178800.0,1721467340.111
2180094.0,1721467340.15
2181359.0,1721467340.19
2183170.0,1721467340.232
2185107.0,1721467340.269
2187407.0,1721467340.309
2187407.0,1721467340.342
2190211.0,1721467340.381
2192837.0,1721467340.422
2196116.0,1721467340.462
2198932.0,1721467340.501
2202002.0,1721467340.541
2205155.0,1721467340.582
2207404.0,1721467340.622
2205836.0,1721467340.662
2199874.0,1721467340.703
2194203.0,1721467340.742
2190844.0,1721467340.782
2189349.0,1721467340.824
2189581.0,1721467340.862
2190603.0,1721467340.902
2192095.0,1721467340.943
2193019.0,1721467340.982
2194157.0,1721467341.024
2195299.0,1721467341.059
2196473.0,1721467341.099
2198553.0,1721467341.13
2200775.0,1721467341.171
2203401.0,1721467341.211
2206054.0,1721467341.251
2208836.0,1721467341.292
2211628.0,1721467341.331
2214469.0,1721467341.372
2216622.0,1721467341.412
2214409.0,1721467341.45
2207707.0,1721467341.49
2201306.0,1721467341.532
2197012.0,1721467341.568
2195117.0,1721467341.609
2194725.0,1721467341.649
2195134.0,1721467341.688
2196507.0,1721467341.728
2197134.0,1721467341.769
2197740.0,1721467341.809
2198612.0,1721467341.849
2199561.0,1721467341.89
2201224.0,1721467341.929
2203333.0,1721467341.969
2205574.0,1721467342.011
2208006.0,1721467342.049
2210446.0,1721467342.089
2213118.0,1721467342.13
2215749.0,1721467342.169
2218376.0,1721467342.21
2217398.0,1721467342.25
2211116.0,1721467342.289
2203986.0,1721467342.331
2198692.0,1721467342.372
2196080.0,1721467342.412
2195428.0,1721467342.452
2195794.0,1721467342.493
2196357.0,1721467342.532
2197023.0,1721467342.573
2197155.0,1721467342.615
2197816.0,1721467342.653
2198441.0,1721467342.693
2199648.0,1721467342.735
2201329.0,1721467342.774
2203066.0,1721467342.815
2205585.0,1721467342.855
2208131.0,1721467342.892
2210447.0,1721467342.933
2212988.0,1721467342.974
2214698.0,1721467343.014
2211944.0,1721467343.053
2204929.0,1721467343.095
2198134.0,1721467343.133
2194222.0,1721467343.17
2192864.0,1721467343.212
2192672.0,1721467343.251
2193727.0,1721467343.283
2194566.0,1721467343.324
2195249.0,1721467343.363
2195512.0,1721467343.404
2196369.0,1721467343.444
2197234.0,1721467343.483
2199027.0,1721467343.523
2201013.0,1721467343.565
2203433.0,1721467343.604
2206225.0,1721467343.644
2208660.0,1721467343.685
2211545.0,1721467343.724
2214123.0,1721467343.764
2216738.0,1721467343.806
2215171.0,1721467343.844
2208515.0,1721467343.884
2200609.0,1721467343.925
2195650.0,1721467343.964
2192966.0,1721467344.001
2191932.0,1721467344.036
2192323.0,1721467344.072
2193417.0,1721467344.112
2194116.0,1721467344.153
2194862.0,1721467344.193
2195469.0,1721467344.233
2196559.0,1721467344.274
2197938.0,1721467344.313
2199970.0,1721467344.354
2202326.0,1721467344.393
2202326.0,1721467344.425
2204989.0,1721467344.465
2207770.0,1721467344.506
2210553.0,1721467344.545
2213165.0,1721467344.586
2215802.0,1721467344.627
2218175.0,1721467344.666
2217864.0,1721467344.706
2211207.0,1721467344.747
2203865.0,1721467344.787
2198959.0,1721467344.826
2196245.0,1721467344.867
2195644.0,1721467344.906
2196218.0,1721467344.946
2197172.0,1721467344.988
2197857.0,1721467345.026
2198427.0,1721467345.066
2199001.0,1721467345.108
2200024.0,1721467345.147
2201524.0,1721467345.187
2203554.0,1721467345.228
2205539.0,1721467345.267
2208346.0,1721467345.307
2211121.0,1721467345.348
2213818.0,1721467345.388
2216517.0,1721467345.42
2219038.0,1721467345.456
2222003.0,1721467345.493
2224343.0,1721467345.534
2222704.0,1721467345.575
2216161.0,1721467345.614
2209683.0,1721467345.654
2205789.0,1721467345.697
2204187.0,1721467345.732
2204334.0,1721467345.772
2205114.0,1721467345.813
2206519.0,1721467345.852
2207179.0,1721467345.892
2207920.0,1721467345.933
2208431.0,1721467345.973
2209557.0,1721467346.012
2211312.0,1721467346.053
2213049.0,1721467346.092
2215383.0,1721467346.132
2218153.0,1721467346.174
2220540.0,1721467346.213
2223505.0,1721467346.253
2225886.0,1721467346.294
2228881.0,1721467346.333
2229271.0,1721467346.373
2224366.0,1721467346.414
2217317.0,1721467346.454
2212561.0,1721467346.494
2210284.0,1721467346.535
2210109.0,1721467346.575
2210915.0,1721467346.615
2212116.0,1721467346.656
2213069.0,1721467346.695
2213720.0,1721467346.736
2214714.0,1721467346.775
2216094.0,1721467346.814
2217432.0,1721467346.854
2219857.0,1721467346.894
2222119.0,1721467346.934
2224908.0,1721467346.974
2227876.0,1721467347.015
2230870.0,1721467347.054
2233914.0,1721467347.094
2236962.0,1721467347.135
2240263.0,1721467347.175
2240131.0,1721467347.214
2234482.0,1721467347.255
2227477.0,1721467347.294
2222364.0,1721467347.334
2220150.0,1721467347.376
2219196.0,1721467347.414
2219766.0,1721467347.454
2220989.0,1721467347.496
2222003.0,1721467347.535
2222684.0,1721467347.575
2223559.0,1721467347.617
2224529.0,1721467347.656
2226223.0,1721467347.694
2227961.0,1721467347.735
2230652.0,1721467347.775
2233226.0,1721467347.815
2235935.0,1721467347.856
2238690.0,1721467347.895
2241695.0,1721467347.935
2244453.0,1721467347.976
2247713.0,1721467348.01
2249498.0,1721467348.05
2245792.0,1721467348.091
2238714.0,1721467348.13
2232367.0,1721467348.171
2228290.0,1721467348.211
2226371.0,1721467348.25
2226098.0,1721467348.29
2226738.0,1721467348.332
2227449.0,1721467348.371
2227963.0,1721467348.411
2228377.0,1721467348.452
2228846.0,1721467348.491
2229648.0,1721467348.531
2231167.0,1721467348.573
2232490.0,1721467348.611
2235115.0,1721467348.651
2237345.0,1721467348.693
2239339.0,1721467348.733
2241577.0,1721467348.774
2244124.0,1721467348.815
2246627.0,1721467348.854
2248131.0,1721467348.894
2245132.0,1721467348.936
2238259.0,1721467348.975
2231320.0,1721467349.015
2227587.0,1721467349.056
2225765.0,1721467349.095
2225496.0,1721467349.129
2226316.0,1721467349.171
2226803.0,1721467349.209
2227179.0,1721467349.249
2227087.0,1721467349.29
2227775.0,1721467349.329
2228649.0,1721467349.37
2230117.0,1721467349.41
2232035.0,1721467349.45
2234034.0,1721467349.49
2236553.0,1721467349.531
2239079.0,1721467349.57
2241287.0,1721467349.61
2243981.0,1721467349.651
2244597.0,1721467349.69
2239442.0,1721467349.73
2231591.0,1721467349.772
2225185.0,1721467349.81
2221491.0,1721467349.851
2220076.0,1721467349.893
2220252.0,1721467349.932
2220960.0,1721467349.973
2221373.0,1721467350.014
2221652.0,1721467350.053
2221865.0,1721467350.094
2222370.0,1721467350.135
2223642.0,1721467350.175
2225114.0,1721467350.215
2227457.0,1721467350.256
2229328.0,1721467350.295
2232088.0,1721467350.336
2234423.0,1721467350.378
2237372.0,1721467350.416
2238407.0,1721467350.447
2233853.0,1721467350.488
2225761.0,1721467350.527
2218313.0,1721467350.568
2213797.0,1721467350.609
2211091.0,1721467350.648
2210015.0,1721467350.688
2210012.0,1721467350.729
2210452.0,1721467350.769
2210268.0,1721467350.808
2210284.0,1721467350.849
2210573.0,1721467350.888
2211501.0,1721467350.928
2212519.0,1721467350.97
2214457.0,1721467351.008
2216265.0,1721467351.049
2218322.0,1721467351.09
2220561.0,1721467351.129
2223121.0,1721467351.17
2224665.0,1721467351.207
2220872.0,1721467351.247
2212350.0,1721467351.282
2204508.0,1721467351.318
2199045.0,1721467351.355
2195614.0,1721467351.394
2194046.0,1721467351.435
2193494.0,1721467351.474
2193453.0,1721467351.514
2193051.0,1721467351.558
2192772.0,1721467351.597
2192811.0,1721467351.637
2193353.0,1721467351.678
2194135.0,1721467351.717
2195677.0,1721467351.758
2197261.0,1721467351.798
2199367.0,1721467351.837
2201244.0,1721467351.877
2203539.0,1721467351.918
2205732.0,1721467351.958
2207002.0,1721467351.997
2202863.0,1721467352.038
2194488.0,1721467352.077
2187227.0,1721467352.118
2182370.0,1721467352.159
2179364.0,1721467352.198
2178512.0,1721467352.238
2178669.0,1721467352.278
2178400.0,1721467352.314
2178071.0,1721467352.355
2177608.0,1721467352.396
2177706.0,1721467352.435
2178288.0,1721467352.475
2179357.0,1721467352.517
2181111.0,1721467352.557
2183007.0,1721467352.596
2185154.0,1721467352.637
2187635.0,1721467352.675
2187635.0,1721467352.711
2189678.0,1721467352.752
2192378.0,1721467352.791
2194265.0,1721467352.831
2192005.0,1721467352.872
2184648.0,1721467352.911
2176860.0,1721467352.952
2171893.0,1721467352.992
2169073.0,1721467353.031
2168077.0,1721467353.071
2168295.0,1721467353.113
2168628.0,1721467353.152
2168952.0,1721467353.192
2169168.0,1721467353.233
2169437.0,1721467353.272
2170389.0,1721467353.312
2172231.0,1721467353.354
2174126.0,1721467353.392
2176495.0,1721467353.433
2179123.0,1721467353.474
2181821.0,1721467353.513
2184301.0,1721467353.552
2187207.0,1721467353.591
2190148.0,1721467353.63
2193417.0,1721467353.669
2193936.0,1721467353.708
2188526.0,1721467353.747
2180785.0,1721467353.786
2174969.0,1721467353.825
2170973.0,1721467353.864
2169196.0,1721467353.903
2168826.0,1721467353.942
2169317.0,1721467353.981
2170059.0,1721467354.02
2170588.0,1721467354.059
2171123.0,1721467354.098
2171946.0,1721467354.137
2173294.0,1721467354.176
2175320.0,1721467354.215
2177721.0,1721467354.254
2180308.0,1721467354.293
2183195.0,1721467354.332
2186168.0,1721467354.371
2189036.0,1721467354.41
2192051.0,1721467354.449
2194970.0,1721467354.488
2197694.0,1721467354.527
2195643.0,1721467354.566
2188948.0,1721467354.605
2182399.0,1721467354.644
2177889.0,1721467354.683
2175824.0,1721467354.722
2175169.0,1721467354.761
2175701.0,1721467354.8
2176425.0,1721467354.839
2177039.0,1721467354.878
2177535.0,1721467354.917
2178209.0,1721467354.956
2179308.0,1721467354.995
2180855.0,1721467355.034
2182556.0,1721467355.073
2184749.0,1721467355.112
2187232.0,1721467355.151
2189937.0,1721467355.19
2192296.0,1721467355.229
2194868.0,1721467355.268
2197655.0,1721467355.307
2198241.0,1721467355.346
2194004.0,1721467355.385
2187124.0,1721467355.424
2181603.0,1721467355.463
2178979.0,1721467355.502
2177697.0,1721467355.541
2178288.0,1721467355.58
2178886.0,1721467355.619
2179155.0,1721467355.658
2179085.0,1721467355.697
2179972.0,1721467355.736
2180482.0,1721467355.775
2182187.0,1721467355.814
2184104.0,1721467355.853
2186447.0,1721467355.892
2188816.0,1721467355.931
2191481.0,1721467355.97
2194224.0,1721467356.009
2196804.0,1721467356.048
2196259.0,1721467356.087
2190180.0,1721467356.126
2183144.0,1721467356.165
2178626.0,1721467356.204
2175822.0,1721467356.243
2174900.0,1721467356.282
2175252.0,1721467356.321
2175804.0,1721467356.36
2176096.0,1721467356.4
2176662.0,1721467356.44
2177250.0,1721467356.48
2178195.0,1721467356.52
2179743.0,1721467356.56
2181558.0,1721467356.6
2183664.0,1721467356.64
2185918.0,1721467356.68
2188446.0,1721467356.72
2190853.0,1721467356.76
2193281.0,1721467356.8
2191144.0,1721467356.84
2183687.0,1721467356.88
2175499.0,1721467356.92
2169967.0,1721467356.96
2166026.0,1721467357.0
2164148.0,1721467357.04
2163838.0,1721467357.08
2163963.0,1721467357.12
2163771.0,1721467357.16
2163533.0,1721467357.2
2163746.0,1721467357.24
2164198.0,1721467357.28
2165273.0,1721467357.32
2166843.0,1721467357.36
2168996.0,1721467357.4
2170997.0,1721467357.44
2173016.0,1721467357.48
2175570.0,1721467357.52
2177452.0,1721467357.56
2178125.0,1721467357.6
2172888.0,1721467357.64
2164671.0,1721467357.68
2157747.0,1721467357.72
2152997.0,1721467357.76
2150221.0,1721467357.8
2149145.0,1721467357.84
2149045.0,1721467357.88
2149202.0,1721467357.92
2149007.0,1721467357.96
2148880.0,1721467358.0
2149180.0,1721467358.04
2149970.0,1721467358.08
2151038.0,1721467358.12
2152744.0,1721467358.16
2154905.0,1721467358.2
2157049.0,1721467358.24
2159538.0,1721467358.28
2161824.0,1721467358.32
2164594.0,1721467358.36
2167121.0,1721467358.4
2167146.0,1721467358.44
2161898.0,1721467358.48
2154385.0,1721467358.52
2148406.0,1721467358.56
2145204.0,1721467358.6
2143700.0,1721467358.64
2143619.0,1721467358.68
2144017.0,1721467358.72
2144303.0,1721467358.76
2144109.0,1721467358.8
2144180.0,1721467358.84
2144822.0,1721467358.88
2145886.0,1721467358.92
2147297.0,1721467358.96
2149027.0,1721467359.0
2151305.0,1721467359.04
2153462.0,1721467359.08
2155660.0,1721467359.12
2158237.0,1721467359.16
2160442.0,1721467359.2
2159344.0,1721467359.24
2153142.0,1721467359.28
2146269.0,1721467359.32
2141541.0,1721467359.36
2139035.0,1721467359.4
2138409.0,1721467359.44
2138804.0,1721467359.48
2139903.0,1721467359.52
2140275.0,1721467359.56
2140504.0,1721467359.6
2141226.0,1721467359.64
2142438.0,1721467359.68
2144007.0,1721467359.72
2146231.0,1721467359.76
2148666.0,1721467359.8
2151428.0,1721467359.84
2154182.0,1721467359.88
2157049.0,1721467359.92
2160029.0,1721467359.96
2160061.0,1721467360.0
2155111.0,1721467360.04
2148870.0,1721467360.08
2144227.0,1721467360.12
2142067.0,1721467360.16
2141479.0,1721467360.2
2142032.0,1721467360.24
2143360.0,1721467360.28
2145220.0,1721467360.36
2146288.0,1721467360.4
2144458.0,1721467360.32
2147701.0,1721467360.44
2149758.0,1721467360.48
2151834.0,1721467360.52
2154576.0,1721467360.56
2157204.0,1721467360.6
2160323.0,1721467360.64
2163123.0,1721467360.68
2166465.0,1721467360.72
2169820.0,1721467360.76
2171593.0,1721467360.8
2169305.0,1721467360.84
2163410.0,1721467360.88
2158323.0,1721467360.92
2155420.0,1721467360.96
2154288.0,1721467361.0
2154551.0,1721467361.04
2155818.0,1721467361.08
2156859.0,1721467361.12
2158144.0,1721467361.16
2159362.0,1721467361.2
2162635.0,1721467361.28
2160813.0,1721467361.24
2165030.0,1721467361.32
2167599.0,1721467361.36
2170456.0,1721467361.4
2176575.0,1721467361.48
2173476.0,1721467361.44
2182855.0,1721467361.56
2186080.0,1721467361.6
2179619.0,1721467361.52
2189375.0,1721467361.64
2191121.0,1721467361.68
2187984.0,1721467361.72
2182316.0,1721467361.76
2178039.0,1721467361.8
2175410.0,1721467361.84
2174754.0,1721467361.88
2176564.0,1721467361.96
2175273.0,1721467361.92
2177802.0,1721467362.0
2178900.0,1721467362.04
2180078.0,1721467362.08
2181212.0,1721467362.12
2183184.0,1721467362.16
2185123.0,1721467362.2
2187581.0,1721467362.24
2190333.0,1721467362.28
2193195.0,1721467362.32
2195943.0,1721467362.36
2199020.0,1721467362.4
2201756.0,1721467362.44
2205013.0,1721467362.48
2208007.0,1721467362.52
2210642.0,1721467362.56
2209069.0,1721467362.6
2199264.0,1721467362.68
2196743.0,1721467362.72
2203880.0,1721467362.64
2196093.0,1721467362.8
2196019.0,1721467362.76
2197323.0,1721467362.84
2199770.0,1721467362.92
2198476.0,1721467362.88
2200750.0,1721467362.96
2201985.0,1721467363.0
2203708.0,1721467363.04
2205420.0,1721467363.08
2207720.0,1721467363.12
2210173.0,1721467363.16
2212691.0,1721467363.2
2215637.0,1721467363.24
2218448.0,1721467363.28
2220930.0,1721467363.32
2220920.0,1721467363.36
2216461.0,1721467363.4
2211670.0,1721467363.44
2208448.0,1721467363.48
2206911.0,1721467363.52
2207116.0,1721467363.56
2208129.0,1721467363.6
2209663.0,1721467363.64
2210747.0,1721467363.68
2211804.0,1721467363.72
2213193.0,1721467363.76
2214651.0,1721467363.8
2216382.0,1721467363.84
2218062.0,1721467363.88
2220839.0,1721467363.92
2223015.0,1721467363.96
2225722.0,1721467364.0
2228441.0,1721467364.04
2230954.0,1721467364.08
2233562.0,1721467364.12
2233380.0,1721467364.16
2228582.0,1721467364.2
2223132.0,1721467364.24
2219522.0,1721467364.28
2217928.0,1721467364.32
2217581.0,1721467364.36
2218405.0,1721467364.4
2219343.0,1721467364.44
2219870.0,1721467364.48
2220552.0,1721467364.52
2220900.0,1721467364.56
2221954.0,1721467364.6
2223084.0,1721467364.64
2224840.0,1721467364.68
2226938.0,1721467364.72
2229149.0,1721467364.76
2231773.0,1721467364.8
2233832.0,1721467364.84
2236291.0,1721467364.88
2238567.0,1721467364.92
2241230.0,1721467364.96
2243349.0,1721467365.0
2241114.0,1721467365.04
2235665.0,1721467365.08
2231014.0,1721467365.12
2228390.0,1721467365.16
2227873.0,1721467365.2
2228677.0,1721467365.24
2230239.0,1721467365.28
2231320.0,1721467365.32
2232442.0,1721467365.36
2233533.0,1721467365.4
2234777.0,1721467365.492
2236148.0,1721467365.533
2238336.0,1721467365.573
2240744.0,1721467365.612
2243283.0,1721467365.652
2246044.0,1721467365.693
2248670.0,1721467365.733
2251600.0,1721467365.772
2253944.0,1721467365.814
2256673.0,1721467365.853
2259365.0,1721467365.893
2258189.0,1721467365.934
2252814.0,1721467365.971
2246168.0,1721467366.011
2242210.0,1721467366.048
2240192.0,1721467366.08
2239773.0,1721467366.118
2240016.0,1721467366.159
2241155.0,1721467366.198
2241879.0,1721467366.238
2242301.0,1721467366.279
2242878.0,1721467366.319
2243981.0,1721467366.359
2245276.0,1721467366.4
2247237.0,1721467366.437
2247237.0,1721467366.47
2249529.0,1721467366.512
2252126.0,1721467366.551
2254715.0,1721467366.591
2257572.0,1721467366.632
2260374.0,1721467366.671
2263419.0,1721467366.712
2266107.0,1721467366.752
2269347.0,1721467366.791
2270809.0,1721467366.831
2267941.0,1721467366.872
2261596.0,1721467366.912
2255995.0,1721467366.952
2252663.0,1721467366.993
2251104.0,1721467367.032
2251185.0,1721467367.072
2251876.0,1721467367.114
2253153.0,1721467367.153
2253804.0,1721467367.189
2254661.0,1721467367.231
2255510.0,1721467367.264
2256590.0,1721467367.302
2258304.0,1721467367.34
2260311.0,1721467367.379
2262304.0,1721467367.419
2264890.0,1721467367.461
2267515.0,1721467367.501
2269787.0,1721467367.54
2272518.0,1721467367.582
2275003.0,1721467367.621
2277946.0,1721467367.654
2279561.0,1721467367.696
2276807.0,1721467367.734
2270165.0,1721467367.774
2264211.0,1721467367.815
2260642.0,1721467367.854
2259279.0,1721467367.895
2259135.0,1721467367.936
2260036.0,1721467367.975
2261177.0,1721467368.015
2261709.0,1721467368.056
2262473.0,1721467368.096
2263308.0,1721467368.135
2264423.0,1721467368.176
2265903.0,1721467368.215
2267611.0,1721467368.255
2269780.0,1721467368.297
2272330.0,1721467368.335
2274608.0,1721467368.376
2276905.0,1721467368.418
2279659.0,1721467368.457
2282080.0,1721467368.498
2283881.0,1721467368.539
2281286.0,1721467368.579
2274901.0,1721467368.619
2268328.0,1721467368.66
2264468.0,1721467368.7
2262756.0,1721467368.739
2262479.0,1721467368.78
2263137.0,1721467368.82
2263792.0,1721467368.861
2263857.0,1721467368.903
2264279.0,1721467368.941
2264213.0,1721467368.981
2265135.0,1721467369.023
2266059.0,1721467369.062
2267713.0,1721467369.102
2269705.0,1721467369.143
2271587.0,1721467369.182
2273259.0,1721467369.222
2275553.0,1721467369.263
2277750.0,1721467369.303
2279352.0,1721467369.342
2277445.0,1721467369.383
2270538.0,1721467369.422
2263517.0,1721467369.462
2258917.0,1721467369.504
2256420.0,1721467369.543
2255984.0,1721467369.583
2256002.0,1721467369.625
2256316.0,1721467369.661
2256379.0,1721467369.7
2256015.0,1721467369.741
2255991.0,1721467369.78
2256332.0,1721467369.82
2257123.0,1721467369.862
2258175.0,1721467369.901
2259625.0,1721467369.941
2261138.0,1721467369.982
2263425.0,1721467370.015
2265542.0,1721467370.055
2266232.0,1721467370.097
2262098.0,1721467370.135
2254085.0,1721467370.175
2246955.0,1721467370.216
2242244.0,1721467370.255
2240080.0,1721467370.296
2239181.0,1721467370.336
2239356.0,1721467370.376
2239386.0,1721467370.416
2239504.0,1721467370.457
2239469.0,1721467370.496
2239880.0,1721467370.536
2240838.0,1721467370.577
2242100.0,1721467370.616
2243492.0,1721467370.656
2245677.0,1721467370.691
2247749.0,1721467370.719
2249944.0,1721467370.76
2252418.0,1721467370.801
2252704.0,1721467370.84
2247001.0,1721467370.881
2238097.0,1721467370.922
2231228.0,1721467370.961
2226481.0,1721467370.999
2223834.0,1721467371.04
2222926.0,1721467371.08
2223105.0,1721467371.119
2223258.0,1721467371.16
2223216.0,1721467371.199
2222874.0,1721467371.24
2223332.0,1721467371.282
2224156.0,1721467371.32
2224156.0,1721467371.357
2225164.0,1721467371.398
2226923.0,1721467371.437
2229353.0,1721467371.478
2231469.0,1721467371.518
2233651.0,1721467371.557
2236062.0,1721467371.598
2238579.0,1721467371.639
2241130.0,1721467371.678
2243364.0,1721467371.718
2242467.0,1721467371.759
2235256.0,1721467371.798
2226508.0,1721467371.838
2219886.0,1721467371.88
2215423.0,1721467371.918
2213172.0,1721467371.958
2212314.0,1721467371.999
2212007.0,1721467372.039
2211884.0,1721467372.08
2211629.0,1721467372.12
2211343.0,1721467372.159
2211483.0,1721467372.2
2212475.0,1721467372.241
2213744.0,1721467372.281
2215402.0,1721467372.32
2217819.0,1721467372.362
2220158.0,1721467372.401
2222622.0,1721467372.441
2224964.0,1721467372.483
2227788.0,1721467372.519
2230280.0,1721467372.56
2232948.0,1721467372.601
2236266.0,1721467372.64
2238606.0,1721467372.681
2236232.0,1721467372.722
2228023.0,1721467372.758
2220568.0,1721467372.791
2215719.0,1721467372.832
2212814.0,1721467372.872
2211702.0,1721467372.911
2211711.0,1721467372.952
2212439.0,1721467372.992
2212905.0,1721467373.032
2213002.0,1721467373.073
2213563.0,1721467373.112
2214479.0,1721467373.152
2215907.0,1721467373.193
2217728.0,1721467373.232
2219975.0,1721467373.273
2222305.0,1721467373.313
2225139.0,1721467373.352
2227674.0,1721467373.393
2230600.0,1721467373.434
2233162.0,1721467373.474
2235769.0,1721467373.51
2239083.0,1721467373.542
2241973.0,1721467373.581
2244186.0,1721467373.622
2241211.0,1721467373.664
2233918.0,1721467373.702
2227357.0,1721467373.742
2223454.0,1721467373.784
2221581.0,1721467373.821
2221698.0,1721467373.861
2222432.0,1721467373.902
2223005.0,1721467373.941
2223411.0,1721467373.98
2223543.0,1721467374.021
2224207.0,1721467374.061
2225229.0,1721467374.101
2226785.0,1721467374.142
2228147.0,1721467374.181
2229801.0,1721467374.221
2231954.0,1721467374.263
2234002.0,1721467374.301
2236047.0,1721467374.341
2238242.0,1721467374.382
2240652.0,1721467374.421
2242923.0,1721467374.462
2245272.0,1721467374.502
2246225.0,1721467374.541
2241638.0,1721467374.581
2234616.0,1721467374.622
2229454.0,1721467374.662
2226839.0,1721467374.702
2226170.0,1721467374.744
2226550.0,1721467374.783
2227410.0,1721467374.821
2227971.0,1721467374.863
2228336.0,1721467374.901
2228719.0,1721467374.942
2229712.0,1721467374.983
2231050.0,1721467375.022
2232607.0,1721467375.063
2234651.0,1721467375.103
2236834.0,1721467375.14
2239471.0,1721467375.18
2242012.0,1721467375.222
2244813.0,1721467375.261
2247286.0,1721467375.301
2250035.0,1721467375.342
2252785.0,1721467375.381
2252695.0,1721467375.421
2247362.0,1721467375.463
2239928.0,1721467375.501
2234727.0,1721467375.541
2232028.0,1721467375.582
2230858.0,1721467375.621
2231143.0,1721467375.662
2231793.0,1721467375.702
2232488.0,1721467375.741
2232707.0,1721467375.781
2233277.0,1721467375.824
2233999.0,1721467375.863
2235194.0,1721467375.903
2236894.0,1721467375.944
2239089.0,1721467375.983
2241358.0,1721467376.022
2244233.0,1721467376.063
2246933.0,1721467376.102
2249586.0,1721467376.142
2252352.0,1721467376.184
2255180.0,1721467376.223
2257897.0,1721467376.252
2260547.0,1721467376.292
2259434.0,1721467376.331
2252945.0,1721467376.371
2245354.0,1721467376.413
2240159.0,1721467376.452
2237165.0,1721467376.492
2235879.0,1721467376.533
2235768.0,1721467376.572
2236397.0,1721467376.612
2236769.0,1721467376.654
2236682.0,1721467376.692
2237302.0,1721467376.732
2237833.0,1721467376.773
2239306.0,1721467376.812
2241019.0,1721467376.853
2243131.0,1721467376.894
2245391.0,1721467376.932
2248025.0,1721467376.974
2250798.0,1721467377.008
2253333.0,1721467377.044
2256043.0,1721467377.081
2258764.0,1721467377.122
2261602.0,1721467377.161
2264428.0,1721467377.202
2267422.0,1721467377.244
2266582.0,1721467377.282
2260560.0,1721467377.322
2252634.0,1721467377.364
2247335.0,1721467377.403
2244069.0,1721467377.442
2242518.0,1721467377.481
2242473.0,1721467377.52
2243129.0,1721467377.559
2243949.0,1721467377.598
2244400.0,1721467377.637
2244861.0,1721467377.676
2245754.0,1721467377.715
2247279.0,1721467377.754
2248839.0,1721467377.793
2251068.0,1721467377.832
2256014.0,1721467377.91
2253150.0,1721467377.871
2258681.0,1721467377.949
2260795.0,1721467377.988
2263361.0,1721467378.027
2265878.0,1721467378.066
2271204.0,1721467378.144
2268888.0,1721467378.183
2262139.0,1721467378.222
2254916.0,1721467378.261
2268864.0,1721467378.105
2250553.0,1721467378.3
2247167.0,1721467378.378
2247182.0,1721467378.417
2248019.0,1721467378.456
2247751.0,1721467378.339
2247658.0,1721467378.495
2247876.0,1721467378.534
2248011.0,1721467378.573
2248605.0,1721467378.612
2249542.0,1721467378.651
2250955.0,1721467378.69
2252944.0,1721467378.729
2254671.0,1721467378.768
2254671.0,1721467378.807
2256864.0,1721467378.846
2259149.0,1721467378.885
2261394.0,1721467378.924
2264022.0,1721467378.963
2265991.0,1721467379.002
2263900.0,1721467379.041
2257427.0,1721467379.08
2250549.0,1721467379.119
2246624.0,1721467379.158
2244412.0,1721467379.197
2244140.0,1721467379.236
2245100.0,1721467379.275
2245799.0,1721467379.314
2246342.0,1721467379.353
2246705.0,1721467379.392
2247048.0,1721467379.431
2248213.0,1721467379.47
2249573.0,1721467379.509
2251184.0,1721467379.548
2253021.0,1721467379.587
2255502.0,1721467379.626
2257873.0,1721467379.665
2260288.0,1721467379.704
2262627.0,1721467379.743
2263956.0,1721467379.782
2259642.0,1721467379.821
2251678.0,1721467379.86
2244219.0,1721467379.899
2239698.0,1721467379.938
2236830.0,1721467379.977
2235246.0,1721467380.055
2235524.0,1721467380.016
2235624.0,1721467380.094
2235026.0,1721467380.172
2235187.0,1721467380.133
2235548.0,1721467380.25
2234941.0,1721467380.211
2236810.0,1721467380.289
2240231.0,1721467380.367
2238352.0,1721467380.328
2242599.0,1721467380.406
2244722.0,1721467380.445
2247065.0,1721467380.484
2249536.0,1721467380.523
2252050.0,1721467380.562
2252591.0,1721467380.601
2247673.0,1721467380.64
2238573.0,1721467380.679
2230842.0,1721467380.718
2225311.0,1721467380.757
2219622.0,1721467380.835
2221559.0,1721467380.796
2218627.0,1721467380.913
2219015.0,1721467380.874
2217575.0,1721467380.991
2217950.0,1721467380.952
2217464.0,1721467381.03
2217917.0,1721467381.069
2219079.0,1721467381.108
2220674.0,1721467381.147
2222480.0,1721467381.186
2224840.0,1721467381.225
2227035.0,1721467381.264
2229240.0,1721467381.303
2231961.0,1721467381.342
2234279.0,1721467381.381
2236679.0,1721467381.42
2239227.0,1721467381.459
2241202.0,1721467381.498
2237433.0,1721467381.537
2228304.0,1721467381.576
2220380.0,1721467381.615
2214686.0,1721467381.654
2211348.0,1721467381.693
2209466.0,1721467381.732
2209137.0,1721467381.771
2208780.0,1721467381.81
2208737.0,1721467381.849
2208339.0,1721467381.888
2208350.0,1721467381.927
2208591.0,1721467381.966
2209722.0,1721467382.005
2210993.0,1721467382.044
2212902.0,1721467382.083
2215026.0,1721467382.122
2217106.0,1721467382.161
2219398.0,1721467382.2
2221828.0,1721467382.239
2224471.0,1721467382.278
2226667.0,1721467382.317
2229341.0,1721467382.356
2232222.0,1721467382.395
2232222.0,1721467382.434
2232791.0,1721467382.473
2228029.0,1721467382.512
2219375.0,1721467382.551
2212416.0,1721467382.59
2208127.0,1721467382.629
2205656.0,1721467382.669
2204875.0,1721467382.709
2204927.0,1721467382.749
2204777.0,1721467382.789
2204598.0,1721467382.829
2204426.0,1721467382.869
2204913.0,1721467382.909
2205411.0,1721467382.949
2206438.0,1721467382.989
2208241.0,1721467383.029
2210317.0,1721467383.069
2215126.0,1721467383.149
2212930.0,1721467383.109
2217948.0,1721467383.189
2220436.0,1721467383.229
2223033.0,1721467383.269
2225488.0,1721467383.309
2227076.0,1721467383.349
2222445.0,1721467383.389
2214314.0,1721467383.429
2207376.0,1721467383.469
2203446.0,1721467383.509
2201706.0,1721467383.549
2200832.0,1721467383.589
2200616.0,1721467383.629
2200718.0,1721467383.669
2200933.0,1721467383.709
2201346.0,1721467383.749
2202125.0,1721467383.789
2203519.0,1721467383.829
2204790.0,1721467383.869
2206854.0,1721467383.909
2209263.0,1721467383.949
2211438.0,1721467383.989
2214083.0,1721467384.029
2217110.0,1721467384.069
2219524.0,1721467384.109
2222147.0,1721467384.149
2225284.0,1721467384.189
2226416.0,1721467384.229
2221808.0,1721467384.269
2212436.0,1721467384.309
2204160.0,1721467384.349
2198565.0,1721467384.389
2195615.0,1721467384.429
2193985.0,1721467384.469
2194276.0,1721467384.509
2194262.0,1721467384.549
2194194.0,1721467384.589
2194195.0,1721467384.629
2194325.0,1721467384.669
2195151.0,1721467384.709
2196364.0,1721467384.749
2198025.0,1721467384.789
2200239.0,1721467384.829
2202234.0,1721467384.869
2204899.0,1721467384.909
2207357.0,1721467384.949
2209607.0,1721467384.989
2212283.0,1721467385.029
2214064.0,1721467385.069
2212396.0,1721467385.109
2204338.0,1721467385.149
2195122.0,1721467385.189
2188086.0,1721467385.229
2183833.0,1721467385.269
2181193.0,1721467385.309
2180756.0,1721467385.349
2180583.0,1721467385.389
2180823.0,1721467385.429
2180304.0,1721467385.469
2180410.0,1721467385.509
2180884.0,1721467385.549
2181731.0,1721467385.589
2182815.0,1721467385.629
2184681.0,1721467385.669
2186776.0,1721467385.709
2189070.0,1721467385.749
2191462.0,1721467385.789
2194136.0,1721467385.829
2196679.0,1721467385.869
2199256.0,1721467385.909
2200198.0,1721467385.949
2194718.0,1721467385.989
2185788.0,1721467386.029
2178413.0,1721467386.069
2173700.0,1721467386.109
2171463.0,1721467386.149
2170871.0,1721467386.189
2170869.0,1721467386.229
2170618.0,1721467386.269
2170533.0,1721467386.309
2170119.0,1721467386.349
2170070.0,1721467386.389
2170881.0,1721467386.429
2172051.0,1721467386.469
2173631.0,1721467386.509
2175596.0,1721467386.549
2177762.0,1721467386.589
2179949.0,1721467386.629
2182362.0,1721467386.669
2184841.0,1721467386.709
2186114.0,1721467386.749
2181829.0,1721467386.789
2173482.0,1721467386.829
2166012.0,1721467386.869
2161399.0,1721467386.909
2159105.0,1721467386.949
2158816.0,1721467386.989
2159568.0,1721467387.029
2160368.0,1721467387.069
2160612.0,1721467387.109
2161071.0,1721467387.149
2161822.0,1721467387.189
2163076.0,1721467387.229
2164547.0,1721467387.269
2167011.0,1721467387.309
2169778.0,1721467387.349
2172196.0,1721467387.389
2175452.0,1721467387.429
2178480.0,1721467387.469
2181453.0,1721467387.509
2182289.0,1721467387.549
2176457.0,1721467387.589
2167491.0,1721467387.629
2159940.0,1721467387.669
2155216.0,1721467387.709
2152503.0,1721467387.749
2151738.0,1721467387.789
2152078.0,1721467387.829
2152608.0,1721467387.869
2152714.0,1721467387.909
2153263.0,1721467387.949
2153881.0,1721467387.989
2155162.0,1721467388.029
2159328.0,1721467388.109
2156829.0,1721467388.069
2162181.0,1721467388.149
2165287.0,1721467388.189
2168468.0,1721467388.229
2171082.0,1721467388.269
2177277.0,1721467388.349
2174271.0,1721467388.309
2179886.0,1721467388.389
2177476.0,1721467388.429
2168866.0,1721467388.469
2160270.0,1721467388.509
2154198.0,1721467388.549
2150345.0,1721467388.589
2148283.0,1721467388.629
2148109.0,1721467388.669
2148195.0,1721467388.709
2148405.0,1721467388.749
2148549.0,1721467388.789
2148984.0,1721467388.829
2149914.0,1721467388.869
2151433.0,1721467388.909
2153343.0,1721467388.949
2155855.0,1721467388.989
2155855.0,1721467389.029
2158844.0,1721467389.069
2161713.0,1721467389.109
2164980.0,1721467389.149
2168039.0,1721467389.189
2171277.0,1721467389.229
2174419.0,1721467389.275
2177837.0,1721467389.315
2181069.0,1721467389.356
2180684.0,1721467389.395
2173812.0,1721467389.435
2165128.0,1721467389.476
2159067.0,1721467389.516
2155582.0,1721467389.555
2154083.0,1721467389.596
2154076.0,1721467389.635
2155061.0,1721467389.676
2155368.0,1721467389.718
2156144.0,1721467389.757
2156765.0,1721467389.794
2157769.0,1721467389.831
2159189.0,1721467389.863
2161374.0,1721467389.902
2163712.0,1721467389.943
2166381.0,1721467389.982
2168749.0,1721467390.022
2172027.0,1721467390.064
2174972.0,1721467390.104
2177971.0,1721467390.135
2187487.0,1721467390.255
2184303.0,1721467390.215
2180890.0,1721467390.176
2181814.0,1721467390.335
2173925.0,1721467390.375
2169175.0,1721467390.416
2166723.0,1721467390.456
2166786.0,1721467390.496
2168067.0,1721467390.537
2169401.0,1721467390.576
2187414.0,1721467390.297
2170426.0,1721467390.616
2171260.0,1721467390.657
2172013.0,1721467390.697
2173698.0,1721467390.736
2175224.0,1721467390.777
2177448.0,1721467390.816
2180407.0,1721467390.857
2183163.0,1721467390.895
2189629.0,1721467390.963
2186478.0,1721467390.928
2192924.0,1721467391.002
2196142.0,1721467391.041
2199178.0,1721467391.082
2201994.0,1721467391.123
2200879.0,1721467391.162
2194015.0,1721467391.202
2186471.0,1721467391.243
2181357.0,1721467391.283
2178472.0,1721467391.323
2177604.0,1721467391.366
2178022.0,1721467391.405
2178691.0,1721467391.445
2178975.0,1721467391.487
2179013.0,1721467391.526
2179335.0,1721467391.566
2180133.0,1721467391.607
2181373.0,1721467391.646
2183207.0,1721467391.686
2185207.0,1721467391.727
2188006.0,1721467391.766
2190351.0,1721467391.806
2193311.0,1721467391.847
2195844.0,1721467391.887
2201019.0,1721467391.967
2203749.0,1721467392.006
2198782.0,1721467392.088
2198139.0,1721467391.926
2180508.0,1721467392.161
2174623.0,1721467392.202
2169998.0,1721467392.242
2188945.0,1721467392.124
2204227.0,1721467392.046
2167098.0,1721467392.283
2165754.0,1721467392.323
2164484.0,1721467392.362
2162990.0,1721467392.403
2161609.0,1721467392.444
2160809.0,1721467392.484
2160521.0,1721467392.523
2160722.0,1721467392.562
2160722.0,1721467392.596
2161105.0,1721467392.636
2162747.0,1721467392.678
2163901.0,1721467392.716
2165589.0,1721467392.757
2167141.0,1721467392.798
2169043.0,1721467392.837
2171441.0,1721467392.877
2170728.0,1721467392.918
2163668.0,1721467392.957
2155055.0,1721467392.997
2150108.0,1721467393.038
2147523.0,1721467393.078
2148784.0,1721467393.117
2151449.0,1721467393.158
2152506.0,1721467393.198
2151173.0,1721467393.238
2148644.0,1721467393.28
2145624.0,1721467393.318
2139285.0,1721467393.4
2142586.0,1721467393.359
2136049.0,1721467393.44
2131134.0,1721467393.48
2123074.0,1721467393.521
2115575.0,1721467393.56
2109025.0,1721467393.601
2101240.0,1721467393.643
2089500.0,1721467393.683
2076608.0,1721467393.722
2067151.0,1721467393.757
2060813.0,1721467393.796
2059426.0,1721467393.836
2063850.0,1721467393.877
2067528.0,1721467393.916
2069117.0,1721467393.956
2068250.0,1721467393.997
2067181.0,1721467394.036
2065892.0,1721467394.077
2064900.0,1721467394.117
2065355.0,1721467394.156
2068534.0,1721467394.196
2072923.0,1721467394.238
2077752.0,1721467394.277
2081874.0,1721467394.317
2083666.0,1721467394.358
2081062.0,1721467394.397
2069574.0,1721467394.437
2053772.0,1721467394.48
2040941.0,1721467394.518
2034532.0,1721467394.556
2032088.0,1721467394.597
2031444.0,1721467394.633
2031706.0,1721467394.674
2030967.0,1721467394.706
2029202.0,1721467394.743
2027257.0,1721467394.783
2025622.0,1721467394.825
2023950.0,1721467394.864
2022205.0,1721467394.904
2020302.0,1721467394.945
2018739.0,1721467394.979
2016719.0,1721467395.019
2014573.0,1721467395.06
2012862.0,1721467395.099
2011106.0,1721467395.139
2003851.0,1721467395.18
1991011.0,1721467395.219
1978589.0,1721467395.26
1969523.0,1721467395.301
1963010.0,1721467395.34
1958915.0,1721467395.38
