bvp,time
-58.82,1600928302.140625
-61.19,1600928302.15625
-59.97,1600928302.171875
-54.39,1600928302.1875
-44.42,1600928302.203125
-30.83,1600928302.21875
-15.09,1600928302.234375
1.0,1600928302.25
15.77,1600928302.265625
28.02,1600928302.28125
37.21,1600928302.296875
43.38,1600928302.3125
46.99,1600928302.328125
48.66,1600928302.34375
49.06,1600928302.359375
48.84,1600928302.375
48.54,1600928302.390625
48.64,1600928302.40625
49.41,1600928302.421875
50.89,1600928302.4375
52.97,1600928302.453125
55.41,1600928302.46875
58.12,1600928302.484375
61.2,1600928302.5
65.0,1600928302.515625
69.91,1600928302.53125
76.22,1600928302.546875
83.94,1600928302.5625
92.92,1600928302.578125
102.81,1600928302.59375
113.12,1600928302.609375
123.12,1600928302.625
131.67,1600928302.640625
137.28,1600928302.65625
138.35,1600928302.671875
133.73,1600928302.6875
123.14,1600928302.703125
107.4,1600928302.71875
88.17,1600928302.734375
67.42,1600928302.75
46.88,1600928302.765625
27.78,1600928302.78125
11.0,1600928302.796875
-2.65,1600928302.8125
-12.25,1600928302.828125
-16.98,1600928302.84375
-16.44,1600928302.859375
-11.08,1600928302.875
-2.09,1600928302.890625
8.86,1600928302.90625
20.27,1600928302.921875
31.13,1600928302.9375
41.0,1600928302.953125
49.7,1600928302.96875
56.8,1600928302.984375
61.45,1600928303.0
62.51,1600928303.015625
58.92,1600928303.03125
50.37,1600928303.046875
37.65,1600928303.0625
22.79,1600928303.078125
8.75,1600928303.09375
-1.3,1600928303.109375
-4.79,1600928303.125
-0.58,1600928303.140625
10.63,1600928303.15625
26.55,1600928303.171875
44.15,1600928303.1875
60.65,1600928303.203125
74.43,1600928303.21875
85.12,1600928303.234375
93.19,1600928303.25
99.0,1600928303.265625
102.17,1600928303.28125
101.52,1600928303.296875
95.4,1600928303.3125
82.43,1600928303.328125
61.94,1600928303.34375
34.12,1600928303.359375
-0.22,1600928303.375
-39.81,1600928303.390625
-82.97,1600928303.40625
-127.44,1600928303.421875
-170.27,1600928303.4375
-208.02,1600928303.453125
-237.24,1600928303.46875
-255.32,1600928303.484375
-261.18,1600928303.5
-255.62,1600928303.515625
-241.16,1600928303.53125
-221.3,1600928303.546875
-199.66,1600928303.5625
-179.11,1600928303.578125
-161.29,1600928303.59375
-146.58,1600928303.609375
-134.49,1600928303.625
-124.17,1600928303.640625
-114.92,1600928303.65625
-106.38,1600928303.671875
-98.58,1600928303.6875
-91.65,1600928303.703125
-85.71,1600928303.71875
-80.73,1600928303.734375
-76.44,1600928303.75
-72.52,1600928303.765625
-68.66,1600928303.78125
-64.71,1600928303.796875
-60.73,1600928303.8125
-56.99,1600928303.828125
-53.79,1600928303.84375
-51.37,1600928303.859375
-49.8,1600928303.875
-48.97,1600928303.890625
-48.67,1600928303.90625
-48.71,1600928303.921875
-48.98,1600928303.9375
-49.43,1600928303.953125
-50.04,1600928303.96875
-50.82,1600928303.984375
-51.91,1600928304.0
-53.65,1600928304.015625
-56.56,1600928304.03125
-61.1,1600928304.046875
-67.28,1600928304.0625
-74.41,1600928304.078125
-81.03,1600928304.09375
-85.26,1600928304.109375
-85.43,1600928304.125
-80.7,1600928304.140625
-71.37,1600928304.15625
-58.72,1600928304.171875
-44.52,1600928304.1875
-30.47,1600928304.203125
-17.77,1600928304.21875
-7.0,1600928304.234375
1.77,1600928304.25
8.73,1600928304.265625
14.22,1600928304.28125
18.59,1600928304.296875
22.27,1600928304.3125
25.62,1600928304.328125
28.94,1600928304.34375
32.28,1600928304.359375
35.56,1600928304.375
38.57,1600928304.390625
41.12,1600928304.40625
43.2,1600928304.421875
44.94,1600928304.4375
46.57,1600928304.453125
48.29,1600928304.46875
50.19,1600928304.484375
52.23,1600928304.5
54.29,1600928304.515625
56.23,1600928304.53125
57.89,1600928304.546875
59.12,1600928304.5625
59.75,1600928304.578125
59.64,1600928304.59375
58.73,1600928304.609375
57.1,1600928304.625
54.99,1600928304.640625
52.72,1600928304.65625
50.57,1600928304.671875
48.67,1600928304.6875
46.96,1600928304.703125
45.16,1600928304.71875
43.03,1600928304.734375
40.41,1600928304.75
37.33,1600928304.765625
33.92,1600928304.78125
30.38,1600928304.796875
26.79,1600928304.8125
23.1,1600928304.828125
19.16,1600928304.84375
14.82,1600928304.859375
10.05,1600928304.875
4.99,1600928304.890625
-0.13,1600928304.90625
-5.04,1600928304.921875
-9.57,1600928304.9375
-13.67,1600928304.953125
-17.45,1600928304.96875
-21.13,1600928304.984375
-25.06,1600928305.0
-29.61,1600928305.015625
-35.09,1600928305.03125
-41.55,1600928305.046875
-48.6,1600928305.0625
-55.3,1600928305.078125
-60.33,1600928305.09375
-62.3,1600928305.109375
-60.26,1600928305.125
-54.0,1600928305.140625
-44.21,1600928305.15625
-32.28,1600928305.171875
-19.84,1600928305.1875
-8.3,1600928305.203125
1.43,1600928305.21875
9.07,1600928305.234375
14.76,1600928305.25
18.84,1600928305.265625
21.68,1600928305.28125
23.55,1600928305.296875
24.63,1600928305.3125
25.1,1600928305.328125
25.08,1600928305.34375
24.8,1600928305.359375
24.43,1600928305.375
24.15,1600928305.390625
24.05,1600928305.40625
24.21,1600928305.421875
24.63,1600928305.4375
25.42,1600928305.453125
26.67,1600928305.46875
28.45,1600928305.484375
30.72,1600928305.5
33.27,1600928305.515625
35.72,1600928305.53125
37.68,1600928305.546875
38.86,1600928305.5625
39.23,1600928305.578125
38.97,1600928305.59375
38.4,1600928305.609375
37.82,1600928305.625
37.28,1600928305.640625
36.65,1600928305.65625
35.58,1600928305.671875
33.79,1600928305.6875
31.19,1600928305.703125
27.99,1600928305.71875
24.63,1600928305.734375
21.59,1600928305.75
19.18,1600928305.765625
17.39,1600928305.78125
15.89,1600928305.796875
14.25,1600928305.8125
12.15,1600928305.828125
9.48,1600928305.84375
6.45,1600928305.859375
3.42,1600928305.875
0.63,1600928305.890625
-1.86,1600928305.90625
-4.25,1600928305.921875
-6.92,1600928305.9375
-10.3,1600928305.953125
-14.75,1600928305.96875
-20.46,1600928305.984375
-27.28,1600928306.0
-34.73,1600928306.015625
-41.94,1600928306.03125
-47.72,1600928306.046875
-50.84,1600928306.0625
-50.31,1600928306.078125
-45.68,1600928306.09375
-37.23,1600928306.109375
-25.92,1600928306.125
-13.21,1600928306.140625
-0.62,1600928306.15625
10.57,1600928306.171875
19.65,1600928306.1875
26.47,1600928306.203125
31.36,1600928306.21875
34.81,1600928306.234375
37.16,1600928306.25
38.51,1600928306.265625
38.75,1600928306.28125
37.77,1600928306.296875
35.68,1600928306.3125
32.83,1600928306.328125
29.68,1600928306.34375
26.56,1600928306.359375
23.61,1600928306.375
20.68,1600928306.390625
17.61,1600928306.40625
14.39,1600928306.421875
11.21,1600928306.4375
8.43,1600928306.453125
6.31,1600928306.46875
4.85,1600928306.484375
3.75,1600928306.5
2.54,1600928306.515625
0.79,1600928306.53125
-1.67,1600928306.546875
-4.75,1600928306.5625
-8.1,1600928306.578125
-11.33,1600928306.59375
-14.18,1600928306.609375
-16.53,1600928306.625
-18.46,1600928306.640625
-20.09,1600928306.65625
-21.49,1600928306.671875
-22.66,1600928306.6875
-23.54,1600928306.703125
-24.07,1600928306.71875
-24.26,1600928306.734375
-24.16,1600928306.75
-23.89,1600928306.765625
-23.56,1600928306.78125
-23.33,1600928306.796875
-23.34,1600928306.8125
-23.73,1600928306.828125
-24.63,1600928306.84375
-26.14,1600928306.859375
-28.38,1600928306.875
-31.48,1600928306.890625
-35.59,1600928306.90625
-40.82,1600928306.921875
-47.05,1600928306.9375
-53.78,1600928306.953125
-60.06,1600928306.96875
-64.54,1600928306.984375
-65.89,1600928307.0
-63.21,1600928307.015625
-56.37,1600928307.03125
-46.13,1600928307.046875
-33.91,1600928307.0625
-21.28,1600928307.078125
-9.54,1600928307.09375
0.59,1600928307.109375
8.92,1600928307.125
15.62,1600928307.140625
20.95,1600928307.15625
25.17,1600928307.171875
28.48,1600928307.1875
31.11,1600928307.203125
33.27,1600928307.21875
35.12,1600928307.234375
36.67,1600928307.25
37.82,1600928307.265625
38.36,1600928307.28125
38.17,1600928307.296875
37.32,1600928307.3125
36.06,1600928307.328125
34.82,1600928307.34375
33.96,1600928307.359375
33.71,1600928307.375
34.03,1600928307.390625
34.62,1600928307.40625
35.08,1600928307.421875
35.02,1600928307.4375
34.22,1600928307.453125
32.7,1600928307.46875
30.65,1600928307.484375
28.36,1600928307.5
26.04,1600928307.515625
23.79,1600928307.53125
21.57,1600928307.546875
19.23,1600928307.5625
16.66,1600928307.578125
13.81,1600928307.59375
10.76,1600928307.609375
7.68,1600928307.625
4.8,1600928307.640625
2.22,1600928307.65625
-0.07,1600928307.671875
-2.24,1600928307.6875
-4.53,1600928307.703125
-7.11,1600928307.71875
-10.03,1600928307.734375
-13.11,1600928307.75
-16.1,1600928307.765625
-18.8,1600928307.78125
-21.14,1600928307.796875
-23.24,1600928307.8125
-25.38,1600928307.828125
-27.89,1600928307.84375
-31.06,1600928307.859375
-35.07,1600928307.875
-39.83,1600928307.890625
-44.99,1600928307.90625
-49.89,1600928307.921875
-53.6,1600928307.9375
-55.14,1600928307.953125
-53.77,1600928307.96875
-49.26,1600928307.984375
-42.0,1600928308.0
-32.93,1600928308.015625
-23.27,1600928308.03125
-14.16,1600928308.046875
-6.39,1600928308.0625
-0.27,1600928308.078125
4.32,1600928308.09375
7.73,1600928308.109375
10.39,1600928308.125
12.66,1600928308.140625
14.73,1600928308.15625
16.69,1600928308.171875
18.5,1600928308.1875
20.08,1600928308.203125
21.36,1600928308.21875
22.27,1600928308.234375
22.87,1600928308.25
23.23,1600928308.265625
23.46,1600928308.28125
23.65,1600928308.296875
23.87,1600928308.3125
24.13,1600928308.328125
24.49,1600928308.34375
24.94,1600928308.359375
25.46,1600928308.375
25.92,1600928308.390625
26.14,1600928308.40625
25.89,1600928308.421875
25.06,1600928308.4375
23.68,1600928308.453125
22.0,1600928308.46875
20.34,1600928308.484375
18.97,1600928308.5
17.96,1600928308.515625
17.11,1600928308.53125
16.09,1600928308.546875
14.61,1600928308.5625
12.54,1600928308.578125
9.99,1600928308.59375
7.21,1600928308.609375
4.45,1600928308.625
1.81,1600928308.640625
-0.72,1600928308.65625
-3.29,1600928308.671875
-6.01,1600928308.6875
-8.86,1600928308.703125
-11.75,1600928308.71875
-14.56,1600928308.734375
-17.17,1600928308.75
-19.6,1600928308.765625
-21.89,1600928308.78125
-24.15,1600928308.796875
-26.52,1600928308.8125
-29.15,1600928308.828125
-32.28,1600928308.84375
-36.11,1600928308.859375
-40.75,1600928308.875
-45.97,1600928308.890625
-51.14,1600928308.90625
-55.27,1600928308.921875
-57.21,1600928308.9375
-56.06,1600928308.953125
-51.48,1600928308.96875
-43.78,1600928308.984375
-33.9,1600928309.0
-23.09,1600928309.015625
-12.55,1600928309.03125
-3.19,1600928309.046875
4.58,1600928309.0625
10.64,1600928309.078125
15.17,1600928309.09375
18.38,1600928309.109375
20.51,1600928309.125
21.73,1600928309.140625
22.27,1600928309.15625
22.38,1600928309.171875
22.34,1600928309.1875
22.41,1600928309.203125
22.71,1600928309.21875
23.29,1600928309.234375
24.06,1600928309.25
24.91,1600928309.265625
25.74,1600928309.28125
26.51,1600928309.296875
27.23,1600928309.3125
27.87,1600928309.328125
28.45,1600928309.34375
28.93,1600928309.359375
29.27,1600928309.375
29.45,1600928309.390625
29.47,1600928309.40625
29.31,1600928309.421875
28.96,1600928309.4375
28.44,1600928309.453125
27.77,1600928309.46875
26.98,1600928309.484375
26.13,1600928309.5
25.22,1600928309.515625
24.21,1600928309.53125
23.0,1600928309.546875
21.51,1600928309.5625
19.68,1600928309.578125
17.55,1600928309.59375
15.22,1600928309.609375
12.84,1600928309.625
10.48,1600928309.640625
8.18,1600928309.65625
5.92,1600928309.671875
3.63,1600928309.6875
1.23,1600928309.703125
-1.28,1600928309.71875
-3.93,1600928309.734375
-6.7,1600928309.75
-9.55,1600928309.765625
-12.45,1600928309.78125
-15.39,1600928309.796875
-18.31,1600928309.8125
-21.26,1600928309.828125
-24.34,1600928309.84375
-27.77,1600928309.859375
-31.78,1600928309.875
-36.5,1600928309.890625
-41.79,1600928309.90625
-47.07,1600928309.921875
-51.45,1600928309.9375
-53.91,1600928309.953125
-53.66,1600928309.96875
-50.46,1600928309.984375
-44.67,1600928310.0
-37.14,1600928310.015625
-28.97,1600928310.03125
-21.15,1600928310.046875
-14.37,1600928310.0625
-8.98,1600928310.078125
-5.02,1600928310.09375
-2.3,1600928310.109375
-0.53,1600928310.125
0.67,1600928310.140625
1.66,1600928310.15625
2.72,1600928310.171875
4.01,1600928310.1875
5.57,1600928310.203125
7.33,1600928310.21875
9.17,1600928310.234375
10.97,1600928310.25
12.67,1600928310.265625
14.25,1600928310.28125
15.76,1600928310.296875
17.28,1600928310.3125
18.97,1600928310.328125
20.98,1600928310.34375
23.4,1600928310.359375
26.17,1600928310.375
28.99,1600928310.390625
31.43,1600928310.40625
33.02,1600928310.421875
33.46,1600928310.4375
32.76,1600928310.453125
31.23,1600928310.46875
29.37,1600928310.484375
27.65,1600928310.5
26.3,1600928310.515625
25.3,1600928310.53125
24.38,1600928310.546875
23.22,1600928310.5625
21.57,1600928310.578125
19.37,1600928310.59375
16.73,1600928310.609375
13.85,1600928310.625
10.93,1600928310.640625
8.13,1600928310.65625
5.5,1600928310.671875
3.03,1600928310.6875
0.65,1600928310.703125
-1.74,1600928310.71875
-4.22,1600928310.734375
-6.84,1600928310.75
-9.6,1600928310.765625
-12.48,1600928310.78125
-15.42,1600928310.796875
-18.38,1600928310.8125
-21.36,1600928310.828125
-24.43,1600928310.84375
-27.74,1600928310.859375
-31.44,1600928310.875
-35.57,1600928310.890625
-39.86,1600928310.90625
-43.66,1600928310.921875
-46.03,1600928310.9375
-45.98,1600928310.953125
-42.78,1600928310.96875
-36.35,1600928310.984375
-27.29,1600928311.0
-16.79,1600928311.015625
-6.26,1600928311.03125
3.09,1600928311.046875
10.56,1600928311.0625
16.01,1600928311.078125
19.74,1600928311.09375
22.22,1600928311.109375
23.84,1600928311.125
24.86,1600928311.140625
25.42,1600928311.15625
25.6,1600928311.171875
25.56,1600928311.1875
25.49,1600928311.203125
25.49,1600928311.21875
25.54,1600928311.234375
25.44,1600928311.25
24.93,1600928311.265625
23.8,1600928311.28125
21.98,1600928311.296875
19.62,1600928311.3125
16.94,1600928311.328125
14.2,1600928311.34375
11.59,1600928311.359375
9.19,1600928311.375
7.03,1600928311.390625
5.08,1600928311.40625
3.32,1600928311.421875
1.74,1600928311.4375
0.31,1600928311.453125
-0.98,1600928311.46875
-2.19,1600928311.484375
-3.37,1600928311.5
-4.6,1600928311.515625
-5.95,1600928311.53125
-7.47,1600928311.546875
-9.12,1600928311.5625
-10.82,1600928311.578125
-12.44,1600928311.59375
-13.89,1600928311.609375
-15.19,1600928311.625
-16.39,1600928311.640625
-17.59,1600928311.65625
-18.8,1600928311.671875
-19.94,1600928311.6875
-20.85,1600928311.703125
-21.37,1600928311.71875
-21.44,1600928311.734375
-21.2,1600928311.75
-20.94,1600928311.765625
-21.06,1600928311.78125
-21.98,1600928311.796875
-24.04,1600928311.8125
-27.45,1600928311.828125
-32.18,1600928311.84375
-37.86,1600928311.859375
-43.82,1600928311.875
-49.07,1600928311.890625
-52.56,1600928311.90625
-53.34,1600928311.921875
-50.96,1600928311.9375
-45.49,1600928311.953125
-37.56,1600928311.96875
-28.21,1600928311.984375
-18.56,1600928312.0
-9.59,1600928312.015625
-1.98,1600928312.03125
4.0,1600928312.046875
8.42,1600928312.0625
11.59,1600928312.078125
13.9,1600928312.09375
15.69,1600928312.109375
17.16,1600928312.125
18.37,1600928312.140625
19.3,1600928312.15625
19.93,1600928312.171875
20.27,1600928312.1875
20.4,1600928312.203125
20.43,1600928312.21875
20.48,1600928312.234375
20.64,1600928312.25
20.94,1600928312.265625
21.41,1600928312.28125
21.99,1600928312.296875
22.55,1600928312.3125
22.89,1600928312.328125
22.81,1600928312.34375
22.2,1600928312.359375
21.09,1600928312.375
19.65,1600928312.390625
18.09,1600928312.40625
16.56,1600928312.421875
15.04,1600928312.4375
13.46,1600928312.453125
11.65,1600928312.46875
9.55,1600928312.484375
7.23,1600928312.5
4.88,1600928312.515625
2.68,1600928312.53125
0.77,1600928312.546875
-0.85,1600928312.5625
-2.28,1600928312.578125
-3.66,1600928312.59375
-5.14,1600928312.609375
-6.82,1600928312.625
-8.81,1600928312.640625
-11.17,1600928312.65625
-13.96,1600928312.671875
-17.18,1600928312.6875
-20.7,1600928312.703125
-24.31,1600928312.71875
-27.71,1600928312.734375
-30.71,1600928312.75
-33.34,1600928312.765625
-35.9,1600928312.78125
-38.85,1600928312.796875
-42.57,1600928312.8125
-47.06,1600928312.828125
-51.76,1600928312.84375
-55.58,1600928312.859375
-57.23,1600928312.875
-55.68,1600928312.890625
-50.53,1600928312.90625
-42.23,1600928312.921875
-31.92,1600928312.9375
-20.98,1600928312.953125
-10.72,1600928312.96875
-1.94,1600928312.984375
5.05,1600928313.0
10.34,1600928313.015625
14.16,1600928313.03125
16.8,1600928313.046875
18.55,1600928313.0625
19.73,1600928313.078125
20.72,1600928313.09375
21.89,1600928313.109375
23.49,1600928313.125
25.52,1600928313.140625
27.68,1600928313.15625
29.57,1600928313.171875
30.81,1600928313.1875
31.28,1600928313.203125
31.17,1600928313.21875
30.88,1600928313.234375
30.81,1600928313.25
31.14,1600928313.265625
31.78,1600928313.28125
32.45,1600928313.296875
32.85,1600928313.3125
32.78,1600928313.328125
32.27,1600928313.34375
31.43,1600928313.359375
30.4,1600928313.375
29.28,1600928313.390625
28.15,1600928313.40625
27.05,1600928313.421875
26.09,1600928313.4375
25.36,1600928313.453125
24.87,1600928313.46875
24.5,1600928313.484375
24.05,1600928313.5
23.28,1600928313.515625
22.0,1600928313.53125
20.12,1600928313.546875
17.66,1600928313.5625
14.65,1600928313.578125
11.11,1600928313.59375
7.03,1600928313.609375
2.39,1600928313.625
-2.79,1600928313.640625
-8.4,1600928313.65625
-14.25,1600928313.671875
-20.1,1600928313.6875
-25.68,1600928313.703125
-30.78,1600928313.71875
-35.32,1600928313.734375
-39.37,1600928313.75
-43.19,1600928313.765625
-47.15,1600928313.78125
-51.55,1600928313.796875
-56.49,1600928313.8125
-61.67,1600928313.828125
-66.32,1600928313.84375
-69.41,1600928313.859375
-69.9,1600928313.875
-67.05,1600928313.890625
-60.74,1600928313.90625
-51.49,1600928313.921875
-40.34,1600928313.9375
-28.55,1600928313.953125
-17.28,1600928313.96875
-7.33,1600928313.984375
0.95,1600928314.0
7.53,1600928314.015625
12.63,1600928314.03125
16.49,1600928314.046875
19.37,1600928314.0625
21.51,1600928314.078125
23.15,1600928314.09375
24.53,1600928314.109375
25.86,1600928314.125
27.26,1600928314.140625
28.79,1600928314.15625
30.42,1600928314.171875
32.15,1600928314.1875
34.02,1600928314.203125
36.13,1600928314.21875
38.53,1600928314.234375
41.2,1600928314.25
44.03,1600928314.265625
46.82,1600928314.28125
49.34,1600928314.296875
51.38,1600928314.3125
52.79,1600928314.328125
53.48,1600928314.34375
53.42,1600928314.359375
52.72,1600928314.375
51.52,1600928314.390625
50.04,1600928314.40625
48.53,1600928314.421875
47.15,1600928314.4375
46.06,1600928314.453125
45.32,1600928314.46875
44.97,1600928314.484375
45.01,1600928314.5
45.34,1600928314.515625
45.85,1600928314.53125
46.36,1600928314.546875
46.74,1600928314.5625
47.01,1600928314.578125
47.36,1600928314.59375
48.09,1600928314.609375
49.46,1600928314.625
51.46,1600928314.640625
53.69,1600928314.65625
55.38,1600928314.671875
55.57,1600928314.6875
53.41,1600928314.703125
48.48,1600928314.71875
40.75,1600928314.734375
30.61,1600928314.75
18.63,1600928314.765625
5.4,1600928314.78125
-8.51,1600928314.796875
-22.39,1600928314.8125
-35.35,1600928314.828125
-46.32,1600928314.84375
-54.24,1600928314.859375
-58.31,1600928314.875
-58.28,1600928314.890625
-54.5,1600928314.90625
-47.8,1600928314.921875
-39.22,1600928314.9375
-29.71,1600928314.953125
-20.03,1600928314.96875
-10.69,1600928314.984375
-2.22,1600928315.0
4.81,1600928315.015625
9.72,1600928315.03125
11.82,1600928315.046875
10.68,1600928315.0625
6.35,1600928315.078125
-0.62,1600928315.09375
-9.23,1600928315.109375
-18.38,1600928315.125
-27.1,1600928315.140625
-34.79,1600928315.15625
-41.17,1600928315.171875
-46.15,1600928315.1875
-49.71,1600928315.203125
-51.77,1600928315.21875
-52.3,1600928315.234375
-51.34,1600928315.25
-49.17,1600928315.265625
-46.24,1600928315.28125
-43.11,1600928315.296875
-40.3,1600928315.3125
-38.17,1600928315.328125
-36.86,1600928315.34375
-36.36,1600928315.359375
-36.56,1600928315.375
-37.3,1600928315.390625
-38.37,1600928315.40625
-39.5,1600928315.421875
-40.35,1600928315.4375
-40.58,1600928315.453125
-40.0,1600928315.46875
-38.64,1600928315.484375
-36.85,1600928315.5
-35.09,1600928315.515625
-33.85,1600928315.53125
-33.38,1600928315.546875
-33.63,1600928315.5625
-34.31,1600928315.578125
-35.11,1600928315.59375
-35.81,1600928315.609375
-36.43,1600928315.625
-37.12,1600928315.640625
-38.19,1600928315.65625
-39.87,1600928315.671875
-42.36,1600928315.6875
-45.69,1600928315.703125
-49.65,1600928315.71875
-53.69,1600928315.734375
-56.9,1600928315.75
-58.23,1600928315.765625
-56.76,1600928315.78125
-52.1,1600928315.796875
-44.49,1600928315.8125
-34.84,1600928315.828125
-24.43,1600928315.84375
-14.47,1600928315.859375
-5.86,1600928315.875
0.98,1600928315.890625
6.04,1600928315.90625
9.5,1600928315.921875
11.64,1600928315.9375
12.71,1600928315.953125
12.96,1600928315.96875
12.62,1600928315.984375
11.92,1600928316.0
11.04,1600928316.015625
10.07,1600928316.03125
8.99,1600928316.046875
7.7,1600928316.0625
6.1,1600928316.078125
4.14,1600928316.09375
1.88,1600928316.109375
-0.56,1600928316.125
-3.02,1600928316.140625
-5.36,1600928316.15625
-7.49,1600928316.171875
-9.33,1600928316.1875
-10.74,1600928316.203125
-11.56,1600928316.21875
-11.54,1600928316.234375
-10.45,1600928316.25
-8.15,1600928316.265625
-4.57,1600928316.28125
0.18,1600928316.296875
5.92,1600928316.3125
12.46,1600928316.328125
19.56,1600928316.34375
26.91,1600928316.359375
34.1,1600928316.375
40.6,1600928316.390625
45.83,1600928316.40625
49.33,1600928316.421875
50.92,1600928316.4375
50.73,1600928316.453125
49.18,1600928316.46875
46.76,1600928316.484375
43.84,1600928316.5
40.6,1600928316.515625
37.07,1600928316.53125
33.16,1600928316.546875
28.81,1600928316.5625
23.93,1600928316.578125
18.48,1600928316.59375
12.47,1600928316.609375
6.09,1600928316.625
-0.16,1600928316.640625
-5.43,1600928316.65625
-8.63,1600928316.671875
-8.82,1600928316.6875
-5.55,1600928316.703125
0.91,1600928316.71875
9.55,1600928316.734375
19.01,1600928316.75
27.96,1600928316.765625
35.51,1600928316.78125
41.26,1600928316.796875
45.22,1600928316.8125
47.56,1600928316.828125
48.49,1600928316.84375
48.24,1600928316.859375
47.1,1600928316.875
45.45,1600928316.890625
43.73,1600928316.90625
42.35,1600928316.921875
41.53,1600928316.9375
41.33,1600928316.953125
41.64,1600928316.96875
42.23,1600928316.984375
42.91,1600928317.0
43.53,1600928317.015625
43.94,1600928317.03125
44.03,1600928317.046875
43.67,1600928317.0625
42.73,1600928317.078125
41.08,1600928317.09375
38.67,1600928317.109375
35.53,1600928317.125
31.82,1600928317.140625
27.71,1600928317.15625
23.39,1600928317.171875
18.96,1600928317.1875
14.48,1600928317.203125
10.02,1600928317.21875
5.74,1600928317.234375
1.82,1600928317.25
-1.55,1600928317.265625
-4.35,1600928317.28125
-6.77,1600928317.296875
-9.18,1600928317.3125
-11.91,1600928317.328125
-15.12,1600928317.34375
-18.74,1600928317.359375
-22.52,1600928317.375
-26.23,1600928317.390625
-29.71,1600928317.40625
-32.98,1600928317.421875
-36.09,1600928317.4375
-39.11,1600928317.453125
-42.04,1600928317.46875
-44.9,1600928317.484375
-47.89,1600928317.5
-51.3,1600928317.515625
-55.5,1600928317.53125
-60.61,1600928317.546875
-66.26,1600928317.5625
-71.51,1600928317.578125
-75.1,1600928317.59375
-75.77,1600928317.609375
-72.79,1600928317.625
-66.25,1600928317.640625
-57.02,1600928317.65625
-46.45,1600928317.671875
-35.9,1600928317.6875
-26.35,1600928317.703125
-18.3,1600928317.71875
-11.84,1600928317.734375
-6.91,1600928317.75
-3.43,1600928317.765625
-1.33,1600928317.78125
-0.34,1600928317.796875
0.01,1600928317.8125
0.37,1600928317.828125
1.34,1600928317.84375
3.29,1600928317.859375
6.22,1600928317.875
9.82,1600928317.890625
13.69,1600928317.90625
17.51,1600928317.921875
21.11,1600928317.9375
24.53,1600928317.953125
27.77,1600928317.96875
30.83,1600928317.984375
33.58,1600928318.0
35.85,1600928318.015625
37.53,1600928318.03125
38.6,1600928318.046875
39.08,1600928318.0625
39.05,1600928318.078125
38.61,1600928318.09375
37.8,1600928318.109375
36.64,1600928318.125
35.14,1600928318.140625
33.27,1600928318.15625
31.03,1600928318.171875
28.41,1600928318.1875
25.49,1600928318.203125
22.39,1600928318.21875
19.24,1600928318.234375
16.17,1600928318.25
13.25,1600928318.265625
10.47,1600928318.28125
7.7,1600928318.296875
4.81,1600928318.3125
1.71,1600928318.328125
-1.6,1600928318.34375
-4.99,1600928318.359375
-8.23,1600928318.375
-11.07,1600928318.390625
-13.35,1600928318.40625
-15.1,1600928318.421875
-16.65,1600928318.4375
-18.59,1600928318.453125
-21.66,1600928318.46875
-26.5,1600928318.484375
-33.29,1600928318.5
-41.54,1600928318.515625
-50.07,1600928318.53125
-57.26,1600928318.546875
-61.56,1600928318.5625
-61.91,1600928318.578125
-58.12,1600928318.59375
-50.81,1600928318.609375
-41.19,1600928318.625
-30.64,1600928318.640625
-20.32,1600928318.65625
-11.02,1600928318.671875
-3.13,1600928318.6875
3.26,1600928318.703125
8.27,1600928318.71875
12.1,1600928318.734375
14.98,1600928318.75
17.2,1600928318.765625
18.95,1600928318.78125
20.42,1600928318.796875
21.68,1600928318.8125
22.72,1600928318.828125
23.51,1600928318.84375
24.03,1600928318.859375
24.32,1600928318.875
24.49,1600928318.890625
24.74,1600928318.90625
25.3,1600928318.921875
26.33,1600928318.9375
27.89,1600928318.953125
29.85,1600928318.96875
31.89,1600928318.984375
33.63,1600928319.0
34.69,1600928319.015625
34.87,1600928319.03125
34.14,1600928319.046875
32.66,1600928319.0625
30.67,1600928319.078125
28.38,1600928319.09375
25.95,1600928319.109375
23.42,1600928319.125
20.76,1600928319.140625
17.92,1600928319.15625
14.85,1600928319.171875
11.61,1600928319.1875
8.31,1600928319.203125
5.11,1600928319.21875
2.1,1600928319.234375
-0.74,1600928319.25
-3.56,1600928319.265625
-6.62,1600928319.28125
-10.2,1600928319.296875
-14.47,1600928319.3125
-19.37,1600928319.328125
-24.66,1600928319.34375
-29.91,1600928319.359375
-34.72,1600928319.375
-38.82,1600928319.390625
-42.2,1600928319.40625
-45.13,1600928319.421875
-48.06,1600928319.4375
-51.43,1600928319.453125
-55.54,1600928319.46875
-60.33,1600928319.484375
-65.3,1600928319.5
-69.59,1600928319.515625
-72.11,1600928319.53125
-71.8,1600928319.546875
-67.96,1600928319.5625
-60.47,1600928319.578125
-49.81,1600928319.59375
-37.02,1600928319.609375
-23.35,1600928319.625
-10.02,1600928319.640625
2.05,1600928319.65625
12.33,1600928319.671875
20.72,1600928319.6875
27.39,1600928319.703125
32.66,1600928319.71875
36.93,1600928319.734375
40.51,1600928319.75
43.58,1600928319.765625
46.16,1600928319.78125
48.15,1600928319.796875
49.49,1600928319.8125
50.23,1600928319.828125
50.52,1600928319.84375
50.6,1600928319.859375
50.68,1600928319.875
50.85,1600928319.890625
51.19,1600928319.90625
51.75,1600928319.921875
52.59,1600928319.9375
53.76,1600928319.953125
55.18,1600928319.96875
56.56,1600928319.984375
57.54,1600928320.0
57.83,1600928320.015625
57.36,1600928320.03125
56.37,1600928320.046875
55.24,1600928320.0625
54.28,1600928320.078125
53.6,1600928320.09375
53.05,1600928320.109375
52.3,1600928320.125
51.07,1600928320.140625
49.18,1600928320.15625
46.6,1600928320.171875
43.41,1600928320.1875
39.74,1600928320.203125
35.71,1600928320.21875
31.44,1600928320.234375
27.04,1600928320.25
22.6,1600928320.265625
18.11,1600928320.28125
13.49,1600928320.296875
8.62,1600928320.3125
3.35,1600928320.328125
-2.4,1600928320.34375
-8.63,1600928320.359375
-15.24,1600928320.375
-22.17,1600928320.390625
-29.39,1600928320.40625
-36.97,1600928320.421875
-45.12,1600928320.4375
-54.03,1600928320.453125
-63.72,1600928320.46875
-73.86,1600928320.484375
-83.67,1600928320.5
-92.06,1600928320.515625
-97.87,1600928320.53125
-100.23,1600928320.546875
-98.79,1600928320.5625
-93.81,1600928320.578125
-86.03,1600928320.59375
-76.42,1600928320.609375
-66.04,1600928320.625
-55.74,1600928320.640625
-46.2,1600928320.65625
-37.76,1600928320.671875
-30.51,1600928320.6875
-24.25,1600928320.703125
-18.66,1600928320.71875
-13.41,1600928320.734375
-8.24,1600928320.75
-3.12,1600928320.765625
1.94,1600928320.78125
6.8,1600928320.796875
11.38,1600928320.8125
15.56,1600928320.828125
19.22,1600928320.84375
22.22,1600928320.859375
24.48,1600928320.875
26.07,1600928320.890625
27.12,1600928320.90625
27.81,1600928320.921875
28.17,1600928320.9375
28.07,1600928320.953125
27.25,1600928320.96875
25.59,1600928320.984375
23.19,1600928321.0
20.37,1600928321.015625
17.48,1600928321.03125
14.61,1600928321.046875
11.49,1600928321.0625
7.62,1600928321.078125
2.57,1600928321.09375
-3.68,1600928321.109375
-10.67,1600928321.125
-17.61,1600928321.140625
-23.74,1600928321.15625
-28.54,1600928321.171875
-31.87,1600928321.1875
-33.86,1600928321.203125
-34.72,1600928321.21875
-34.68,1600928321.234375
-34.01,1600928321.25
-33.06,1600928321.265625
-32.22,1600928321.28125
-31.9,1600928321.296875
-32.3,1600928321.3125
-33.45,1600928321.328125
-35.14,1600928321.34375
-37.11,1600928321.359375
-39.14,1600928321.375
-41.17,1600928321.390625
-43.31,1600928321.40625
-45.82,1600928321.421875
-48.94,1600928321.4375
-52.73,1600928321.453125
-56.79,1600928321.46875
-60.25,1600928321.484375
-61.89,1600928321.5
-60.47,1600928321.515625
-55.2,1600928321.53125
-46.07,1600928321.546875
-33.91,1600928321.5625
-20.17,1600928321.578125
-6.45,1600928321.59375
5.93,1600928321.609375
16.2,1600928321.625
24.19,1600928321.640625
30.09,1600928321.65625
34.25,1600928321.671875
37.02,1600928321.6875
38.65,1600928321.703125
39.28,1600928321.71875
39.04,1600928321.734375
38.1,1600928321.75
36.7,1600928321.765625
35.12,1600928321.78125
33.64,1600928321.796875
32.48,1600928321.8125
31.72,1600928321.828125
31.35,1600928321.84375
31.32,1600928321.859375
31.54,1600928321.875
31.96,1600928321.890625
32.46,1600928321.90625
32.88,1600928321.921875
32.99,1600928321.9375
32.6,1600928321.953125
31.66,1600928321.96875
30.27,1600928321.984375
28.74,1600928322.0
27.38,1600928322.015625
26.43,1600928322.03125
25.89,1600928322.046875
25.57,1600928322.0625
25.17,1600928322.078125
24.44,1600928322.09375
23.31,1600928322.109375
21.86,1600928322.125
20.27,1600928322.140625
18.64,1600928322.15625
16.9,1600928322.171875
14.87,1600928322.1875
12.35,1600928322.203125
9.23,1600928322.21875
5.64,1600928322.234375
1.85,1600928322.25
-1.84,1600928322.265625
-5.21,1600928322.28125
-8.19,1600928322.296875
-10.87,1600928322.3125
-13.43,1600928322.328125
-16.04,1600928322.34375
-18.9,1600928322.359375
-22.24,1600928322.375
-26.24,1600928322.390625
-30.9,1600928322.40625
-35.84,1600928322.421875
-40.23,1600928322.4375
-42.98,1600928322.453125
-43.07,1600928322.46875
-39.91,1600928322.484375
-33.6,1600928322.5
-24.85,1600928322.515625
-14.77,1600928322.53125
-4.57,1600928322.546875
4.82,1600928322.5625
12.77,1600928322.578125
19.01,1600928322.59375
23.47,1600928322.609375
26.28,1600928322.625
27.6,1600928322.640625
27.71,1600928322.65625
26.91,1600928322.671875
25.48,1600928322.6875
23.69,1600928322.703125
21.78,1600928322.71875
19.97,1600928322.734375
18.47,1600928322.75
17.43,1600928322.765625
16.92,1600928322.78125
16.89,1600928322.796875
17.24,1600928322.8125
17.78,1600928322.828125
18.36,1600928322.84375
18.85,1600928322.859375
19.18,1600928322.875
19.29,1600928322.890625
19.11,1600928322.90625
18.61,1600928322.921875
17.78,1600928322.9375
16.7,1600928322.953125
15.46,1600928322.96875
14.13,1600928322.984375
12.72,1600928323.0
11.07,1600928323.015625
9.06,1600928323.03125
6.61,1600928323.046875
3.87,1600928323.0625
1.09,1600928323.078125
-1.41,1600928323.09375
-3.45,1600928323.109375
-5.08,1600928323.125
-6.6,1600928323.140625
-8.35,1600928323.15625
-10.57,1600928323.171875
-13.34,1600928323.1875
-16.47,1600928323.203125
-19.63,1600928323.21875
-22.53,1600928323.234375
-24.96,1600928323.25
-26.91,1600928323.265625
-28.57,1600928323.28125
-30.26,1600928323.296875
-32.38,1600928323.3125
-35.3,1600928323.328125
-39.14,1600928323.34375
-43.74,1600928323.359375
-48.46,1600928323.375
-52.3,1600928323.390625
-54.09,1600928323.40625
-52.81,1600928323.421875
-47.97,1600928323.4375
-39.79,1600928323.453125
-29.18,1600928323.46875
-17.5,1600928323.484375
-6.11,1600928323.5
3.89,1600928323.515625
11.97,1600928323.53125
18.05,1600928323.546875
22.38,1600928323.5625
25.33,1600928323.578125
27.25,1600928323.59375
28.42,1600928323.609375
29.1,1600928323.625
29.49,1600928323.640625
29.75,1600928323.65625
29.94,1600928323.671875
30.03,1600928323.6875
29.96,1600928323.703125
29.66,1600928323.71875
29.18,1600928323.734375
28.64,1600928323.75
28.22,1600928323.765625
28.04,1600928323.78125
28.12,1600928323.796875
28.34,1600928323.8125
28.44,1600928323.828125
28.17,1600928323.84375
27.31,1600928323.859375
25.77,1600928323.875
23.62,1600928323.890625
21.06,1600928323.90625
18.33,1600928323.921875
15.64,1600928323.9375
13.12,1600928323.953125
10.77,1600928323.96875
8.47,1600928323.984375
6.08,1600928324.0
3.51,1600928324.015625
0.83,1600928324.03125
-1.82,1600928324.046875
-4.24,1600928324.0625
-6.34,1600928324.078125
-8.14,1600928324.09375
-9.85,1600928324.109375
-11.68,1600928324.125
-13.81,1600928324.140625
-16.26,1600928324.15625
-18.9,1600928324.171875
-21.51,1600928324.1875
-23.84,1600928324.203125
-25.75,1600928324.21875
-27.24,1600928324.234375
-28.46,1600928324.25
-29.73,1600928324.265625
-31.42,1600928324.28125
-33.87,1600928324.296875
-37.22,1600928324.3125
-41.28,1600928324.328125
-45.46,1600928324.34375
-48.87,1600928324.359375
-50.46,1600928324.375
-49.41,1600928324.390625
-45.33,1600928324.40625
-38.42,1600928324.421875
-29.41,1600928324.4375
-19.36,1600928324.453125
-9.31,1600928324.46875
-0.12,1600928324.484375
7.69,1600928324.5
13.91,1600928324.515625
18.57,1600928324.53125
21.87,1600928324.546875
24.08,1600928324.5625
25.42,1600928324.578125
26.12,1600928324.59375
26.31,1600928324.609375
26.13,1600928324.625
25.71,1600928324.640625
25.25,1600928324.65625
24.95,1600928324.671875
24.97,1600928324.6875
25.32,1600928324.703125
25.91,1600928324.71875
26.51,1600928324.734375
26.91,1600928324.75
27.02,1600928324.765625
26.89,1600928324.78125
26.69,1600928324.796875
26.52,1600928324.8125
26.4,1600928324.828125
26.2,1600928324.84375
25.74,1600928324.859375
24.97,1600928324.875
23.95,1600928324.890625
22.94,1600928324.90625
22.18,1600928324.921875
21.8,1600928324.9375
21.72,1600928324.953125
21.66,1600928324.96875
21.25,1600928324.984375
20.23,1600928325.0
18.57,1600928325.015625
16.43,1600928325.03125
14.15,1600928325.046875
12.04,1600928325.0625
10.25,1600928325.078125
8.72,1600928325.09375
7.24,1600928325.109375
5.54,1600928325.125
3.41,1600928325.140625
0.79,1600928325.15625
-2.27,1600928325.171875
-5.62,1600928325.1875
-9.11,1600928325.203125
-12.6,1600928325.21875
-16.06,1600928325.234375
-19.54,1600928325.25
-23.23,1600928325.265625
-27.38,1600928325.28125
-32.23,1600928325.296875
-37.83,1600928325.3125
-43.83,1600928325.328125
-49.45,1600928325.34375
-53.62,1600928325.359375
-55.26,1600928325.375
-53.67,1600928325.390625
-48.8,1600928325.40625
-41.22,1600928325.421875
-32.01,1600928325.4375
-22.39,1600928325.453125
-13.4,1600928325.46875
-5.71,1600928325.484375
0.42,1600928325.5
4.99,1600928325.515625
8.18,1600928325.53125
10.14,1600928325.546875
11.05,1600928325.5625
11.09,1600928325.578125
10.51,1600928325.59375
9.65,1600928325.609375
8.84,1600928325.625
8.37,1600928325.640625
8.38,1600928325.65625
8.85,1600928325.671875
9.61,1600928325.6875
10.47,1600928325.703125
11.32,1600928325.71875
12.16,1600928325.734375
13.1,1600928325.75
14.24,1600928325.765625
15.56,1600928325.78125
16.84,1600928325.796875
17.78,1600928325.8125
18.06,1600928325.828125
17.48,1600928325.84375
16.12,1600928325.859375
14.28,1600928325.875
12.37,1600928325.890625
10.81,1600928325.90625
9.77,1600928325.921875
9.19,1600928325.9375
8.75,1600928325.953125
8.09,1600928325.96875
6.92,1600928325.984375
5.2,1600928326.0
3.15,1600928326.015625
1.16,1600928326.03125
-0.42,1600928326.046875
-1.49,1600928326.0625
-2.21,1600928326.078125
-2.97,1600928326.09375
-4.19,1600928326.109375
-6.16,1600928326.125
-8.87,1600928326.140625
-12.09,1600928326.15625
-15.5,1600928326.171875
-18.76,1600928326.1875
-21.68,1600928326.203125
-24.23,1600928326.21875
-26.49,1600928326.234375
-28.67,1600928326.25
-31.05,1600928326.265625
-33.9,1600928326.28125
-37.44,1600928326.296875
-41.6,1600928326.3125
-45.9,1600928326.328125
-49.43,1600928326.34375
-51.07,1600928326.359375
-49.83,1600928326.375
-45.21,1600928326.390625
-37.42,1600928326.40625
-27.38,1600928326.421875
-16.35,1600928326.4375
-5.62,1600928326.453125
3.84,1600928326.46875
11.45,1600928326.484375
17.08,1600928326.5
20.84,1600928326.515625
23.04,1600928326.53125
24.05,1600928326.546875
24.26,1600928326.5625
23.99,1600928326.578125
23.47,1600928326.59375
22.81,1600928326.609375
22.08,1600928326.625
21.36,1600928326.640625
20.8,1600928326.65625
20.54,1600928326.671875
20.63,1600928326.6875
21.01,1600928326.703125
21.56,1600928326.71875
22.1,1600928326.734375
22.53,1600928326.75
22.84,1600928326.765625
23.04,1600928326.78125
23.11,1600928326.796875
22.95,1600928326.8125
22.4,1600928326.828125
21.36,1600928326.84375
19.81,1600928326.859375
17.89,1600928326.875
15.85,1600928326.890625
13.93,1600928326.90625
12.28,1600928326.921875
10.91,1600928326.9375
9.68,1600928326.953125
8.38,1600928326.96875
6.82,1600928326.984375
4.97,1600928327.0
2.9,1600928327.015625
0.84,1600928327.03125
-1.02,1600928327.046875
-2.59,1600928327.0625
-3.91,1600928327.078125
-5.19,1600928327.09375
-6.62,1600928327.109375
-8.31,1600928327.125
-10.26,1600928327.140625
-12.3,1600928327.15625
-14.25,1600928327.171875
-15.99,1600928327.1875
-17.47,1600928327.203125
-18.75,1600928327.21875
-20.0,1600928327.234375
-21.38,1600928327.25
-23.16,1600928327.265625
-25.58,1600928327.28125
-28.87,1600928327.296875
-33.08,1600928327.3125
-37.89,1600928327.328125
-42.56,1600928327.34375
-45.97,1600928327.359375
-46.89,1600928327.375
-44.45,1600928327.390625
-38.5,1600928327.40625
-29.71,1600928327.421875
-19.42,1600928327.4375
-9.11,1600928327.453125
0.03,1600928327.46875
7.4,1600928327.484375
12.96,1600928327.5
16.98,1600928327.515625
19.86,1600928327.53125
21.85,1600928327.546875
23.17,1600928327.5625
24.06,1600928327.578125
24.77,1600928327.59375
25.61,1600928327.609375
26.75,1600928327.625
28.18,1600928327.640625
29.71,1600928327.65625
31.07,1600928327.671875
32.04,1600928327.6875
32.58,1600928327.703125
32.75,1600928327.71875
32.7,1600928327.734375
32.53,1600928327.75
32.33,1600928327.765625
32.08,1600928327.78125
31.77,1600928327.796875
31.34,1600928327.8125
30.71,1600928327.828125
29.76,1600928327.84375
28.3,1600928327.859375
26.2,1600928327.875
23.42,1600928327.890625
20.08,1600928327.90625
16.47,1600928327.921875
12.95,1600928327.9375
9.79,1600928327.953125
7.09,1600928327.96875
4.74,1600928327.984375
2.53,1600928328.0
0.26,1600928328.015625
-2.12,1600928328.03125
-4.49,1600928328.046875
-6.64,1600928328.0625
-8.37,1600928328.078125
-9.62,1600928328.09375
-10.54,1600928328.109375
-11.43,1600928328.125
-12.62,1600928328.140625
-14.37,1600928328.15625
-16.76,1600928328.171875
-19.64,1600928328.1875
-22.74,1600928328.203125
-25.76,1600928328.21875
-28.51,1600928328.234375
-30.99,1600928328.25
-33.35,1600928328.265625
-35.91,1600928328.28125
-38.99,1600928328.296875
-42.89,1600928328.3125
-47.65,1600928328.328125
-53.02,1600928328.34375
-58.3,1600928328.359375
-62.51,1600928328.375
-64.55,1600928328.390625
-63.54,1600928328.40625
-59.14,1600928328.421875
-51.67,1600928328.4375
-42.07,1600928328.453125
-31.54,1600928328.46875
-21.24,1600928328.484375
-12.02,1600928328.5
-4.35,1600928328.515625
1.7,1600928328.53125
6.24,1600928328.546875
9.54,1600928328.5625
11.93,1600928328.578125
13.75,1600928328.59375
15.24,1600928328.609375
16.5,1600928328.625
17.49,1600928328.640625
18.13,1600928328.65625
18.39,1600928328.671875
18.39,1600928328.6875
18.37,1600928328.703125
18.64,1600928328.71875
19.39,1600928328.734375
20.62,1600928328.75
22.14,1600928328.765625
23.64,1600928328.78125
24.81,1600928328.796875
25.46,1600928328.8125
25.49,1600928328.828125
24.93,1600928328.84375
23.81,1600928328.859375
22.21,1600928328.875
20.29,1600928328.890625
18.29,1600928328.90625
16.49,1600928328.921875
15.14,1600928328.9375
14.34,1600928328.953125
13.98,1600928328.96875
13.76,1600928328.984375
13.31,1600928329.0
12.37,1600928329.015625
10.9,1600928329.03125
9.07,1600928329.046875
7.2,1600928329.0625
5.61,1600928329.078125
4.48,1600928329.09375
3.78,1600928329.109375
3.33,1600928329.125
2.82,1600928329.140625
1.94,1600928329.15625
0.47,1600928329.171875
-1.63,1600928329.1875
-4.18,1600928329.203125
-6.92,1600928329.21875
-9.58,1600928329.234375
-11.99,1600928329.25
-14.2,1600928329.265625
-16.36,1600928329.28125
-18.75,1600928329.296875
-21.66,1600928329.3125
-25.33,1600928329.328125
-29.91,1600928329.34375
-35.28,1600928329.359375
-40.98,1600928329.375
-46.09,1600928329.390625
-49.4,1600928329.40625
-49.76,1600928329.421875
-46.46,1600928329.4375
-39.58,1600928329.453125
-29.98,1600928329.46875
-19.03,1600928329.484375
-8.18,1600928329.5
1.45,1600928329.515625
9.25,1600928329.53125
15.07,1600928329.546875
19.11,1600928329.5625
21.7,1600928329.578125
23.27,1600928329.59375
24.19,1600928329.609375
24.79,1600928329.625
25.28,1600928329.640625
25.67,1600928329.65625
25.89,1600928329.671875
25.82,1600928329.6875
25.43,1600928329.703125
24.87,1600928329.71875
24.45,1600928329.734375
24.5,1600928329.75
25.23,1600928329.765625
26.71,1600928329.78125
28.79,1600928329.796875
31.19,1600928329.8125
33.5,1600928329.828125
35.3,1600928329.84375
36.16,1600928329.859375
35.79,1600928329.875
34.05,1600928329.890625
31.09,1600928329.90625
27.26,1600928329.921875
23.14,1600928329.9375
19.27,1600928329.953125
16.06,1600928329.96875
13.61,1600928329.984375
11.75,1600928330.0
10.17,1600928330.015625
8.62,1600928330.03125
7.04,1600928330.046875
5.59,1600928330.0625
4.54,1600928330.078125
4.15,1600928330.09375
4.48,1600928330.109375
5.33,1600928330.125
6.31,1600928330.140625
6.97,1600928330.15625
6.88,1600928330.171875
5.74,1600928330.1875
3.44,1600928330.203125
-0.03,1600928330.21875
-4.52,1600928330.234375
-9.77,1600928330.25
-15.46,1600928330.265625
-21.22,1600928330.28125
-26.74,1600928330.296875
-31.87,1600928330.3125
-36.63,1600928330.328125
-41.07,1600928330.34375
-45.2,1600928330.359375
-48.8,1600928330.375
-51.36,1600928330.390625
-52.16,1600928330.40625
-50.58,1600928330.421875
-46.36,1600928330.4375
-39.76,1600928330.453125
-31.55,1600928330.46875
-22.74,1600928330.484375
-14.34,1600928330.5
-7.06,1600928330.515625
-1.24,1600928330.53125
3.04,1600928330.546875
5.92,1600928330.5625
7.58,1600928330.578125
8.27,1600928330.59375
8.25,1600928330.609375
7.88,1600928330.625
7.58,1600928330.640625
7.75,1600928330.65625
8.68,1600928330.671875
10.4,1600928330.6875
12.72,1600928330.703125
15.24,1600928330.71875
17.47,1600928330.734375
19.02,1600928330.75
19.66,1600928330.765625
19.41,1600928330.78125
18.48,1600928330.796875
17.2,1600928330.8125
15.84,1600928330.828125
14.53,1600928330.84375
13.24,1600928330.859375
11.83,1600928330.875
10.17,1600928330.890625
8.26,1600928330.90625
6.3,1600928330.921875
4.59,1600928330.9375
3.42,1600928330.953125
2.83,1600928330.96875
2.62,1600928330.984375
2.39,1600928331.0
1.69,1600928331.015625
0.31,1600928331.03125
-1.73,1600928331.046875
-4.13,1600928331.0625
-6.59,1600928331.078125
-8.91,1600928331.09375
-11.11,1600928331.109375
-13.29,1600928331.125
-15.57,1600928331.140625
-17.9,1600928331.15625
-20.15,1600928331.171875
-22.15,1600928331.1875
-23.81,1600928331.203125
-25.19,1600928331.21875
-26.41,1600928331.234375
-27.6,1600928331.25
-28.84,1600928331.265625
-30.13,1600928331.28125
-31.52,1600928331.296875
-33.16,1600928331.3125
-35.33,1600928331.328125
-38.22,1600928331.34375
-41.78,1600928331.359375
-45.51,1600928331.375
-48.46,1600928331.390625
-49.46,1600928331.40625
-47.48,1600928331.421875
-42.04,1600928331.4375
-33.42,1600928331.453125
-22.64,1600928331.46875
-11.13,1600928331.484375
-0.31,1600928331.5
8.85,1600928331.515625
15.96,1600928331.53125
21.14,1600928331.546875
24.81,1600928331.5625
27.36,1600928331.578125
29.06,1600928331.59375
29.98,1600928331.609375
30.15,1600928331.625
29.69,1600928331.640625
28.78,1600928331.65625
27.75,1600928331.671875
26.88,1600928331.6875
26.38,1600928331.703125
26.27,1600928331.71875
26.48,1600928331.734375
26.85,1600928331.75
27.26,1600928331.765625
27.66,1600928331.78125
28.06,1600928331.796875
28.46,1600928331.8125
28.82,1600928331.828125
29.03,1600928331.84375
28.97,1600928331.859375
28.5,1600928331.875
27.59,1600928331.890625
26.27,1600928331.90625
24.7,1600928331.921875
23.01,1600928331.9375
21.36,1600928331.953125
19.81,1600928331.96875
18.33,1600928331.984375
16.83,1600928332.0
15.13,1600928332.015625
13.12,1600928332.03125
10.73,1600928332.046875
8.06,1600928332.0625
5.3,1600928332.078125
2.76,1600928332.09375
0.63,1600928332.109375
-1.05,1600928332.125
-2.47,1600928332.140625
-3.96,1600928332.15625
-5.82,1600928332.171875
-8.21,1600928332.1875
-11.05,1600928332.203125
-14.08,1600928332.21875
-16.96,1600928332.234375
-19.39,1600928332.25
-21.26,1600928332.265625
-22.63,1600928332.28125
-23.74,1600928332.296875
-24.97,1600928332.3125
-26.76,1600928332.328125
-29.52,1600928332.34375
-33.43,1600928332.359375
-38.29,1600928332.375
-43.4,1600928332.390625
-47.63,1600928332.40625
-49.75,1600928332.421875
-48.73,1600928332.4375
-44.21,1600928332.453125
-36.6,1600928332.46875
-26.95,1600928332.484375
-16.7,1600928332.5
-7.08,1600928332.515625
1.05,1600928332.53125
7.41,1600928332.546875
12.12,1600928332.5625
15.53,1600928332.578125
18.01,1600928332.59375
19.88,1600928332.609375
21.34,1600928332.625
22.54,1600928332.640625
23.58,1600928332.65625
24.5,1600928332.671875
25.26,1600928332.6875
25.83,1600928332.703125
26.21,1600928332.71875
26.45,1600928332.734375
26.68,1600928332.75
27.01,1600928332.765625
27.47,1600928332.78125
27.95,1600928332.796875
28.29,1600928332.8125
28.31,1600928332.828125
27.99,1600928332.84375
27.42,1600928332.859375
26.74,1600928332.875
26.12,1600928332.890625
25.58,1600928332.90625
25.04,1600928332.921875
24.36,1600928332.9375
23.44,1600928332.953125
22.26,1600928332.96875
20.89,1600928332.984375
19.44,1600928333.0
18.01,1600928333.015625
16.61,1600928333.03125
15.2,1600928333.046875
13.7,1600928333.0625
12.0,1600928333.078125
10.1,1600928333.09375
8.03,1600928333.109375
5.88,1600928333.125
3.75,1600928333.140625
1.68,1600928333.15625
-0.37,1600928333.171875
-2.49,1600928333.1875
-4.8,1600928333.203125
-7.37,1600928333.21875
-10.14,1600928333.234375
-13.0,1600928333.25
-15.81,1600928333.265625
-18.46,1600928333.28125
-20.95,1600928333.296875
-23.31,1600928333.3125
-25.59,1600928333.328125
-27.82,1600928333.34375
-30.02,1600928333.359375
-32.3,1600928333.375
-34.85,1600928333.390625
-37.91,1600928333.40625
-41.61,1600928333.421875
-45.74,1600928333.4375
-49.67,1600928333.453125
-52.4,1600928333.46875
-52.84,1600928333.484375
-50.22,1600928333.5
-44.44,1600928333.515625
-36.15,1600928333.53125
-26.58,1600928333.546875
-17.1,1600928333.5625
-8.85,1600928333.578125
-2.36,1600928333.59375
2.37,1600928333.609375
5.72,1600928333.625
8.17,1600928333.640625
10.05,1600928333.65625
11.53,1600928333.671875
12.63,1600928333.6875
13.41,1600928333.703125
13.99,1600928333.71875
14.5,1600928333.734375
15.1,1600928333.75
15.8,1600928333.765625
16.57,1600928333.78125
17.33,1600928333.796875
18.01,1600928333.8125
18.58,1600928333.828125
19.02,1600928333.84375
19.36,1600928333.859375
19.56,1600928333.875
19.6,1600928333.890625
19.44,1600928333.90625
19.04,1600928333.921875
18.37,1600928333.9375
17.38,1600928333.953125
16.05,1600928333.96875
14.29,1600928333.984375
12.05,1600928334.0
9.29,1600928334.015625
6.13,1600928334.03125
2.88,1600928334.046875
0.04,1600928334.0625
-1.83,1600928334.078125
-2.28,1600928334.09375
-1.22,1600928334.109375
1.07,1600928334.125
3.99,1600928334.140625
6.88,1600928334.15625
9.13,1600928334.171875
10.36,1600928334.1875
10.35,1600928334.203125
8.98,1600928334.21875
6.24,1600928334.234375
2.21,1600928334.25
-2.84,1600928334.265625
-8.38,1600928334.28125
-13.75,1600928334.296875
-18.2,1600928334.3125
-21.13,1600928334.328125
-22.27,1600928334.34375
-21.7,1600928334.359375
-19.88,1600928334.375
-17.49,1600928334.390625
-15.22,1600928334.40625
-13.68,1600928334.421875
-13.23,1600928334.4375
-14.17,1600928334.453125
-16.61,1600928334.46875
-20.6,1600928334.484375
-25.92,1600928334.5
-32.04,1600928334.515625
-37.94,1600928334.53125
-42.39,1600928334.546875
-44.21,1600928334.5625
-42.7,1600928334.578125
-37.92,1600928334.59375
-30.62,1600928334.609375
-22.01,1600928334.625
-13.28,1600928334.640625
-5.35,1600928334.65625
1.34,1600928334.671875
6.63,1600928334.6875
10.59,1600928334.703125
13.32,1600928334.71875
14.94,1600928334.734375
15.65,1600928334.75
15.75,1600928334.765625
15.6,1600928334.78125
15.52,1600928334.796875
15.68,1600928334.8125
16.14,1600928334.828125
16.81,1600928334.84375
17.61,1600928334.859375
18.5,1600928334.875
19.45,1600928334.890625
20.46,1600928334.90625
21.44,1600928334.921875
22.29,1600928334.9375
22.92,1600928334.953125
23.3,1600928334.96875
23.52,1600928334.984375
23.68,1600928335.0
23.86,1600928335.015625
23.98,1600928335.03125
23.87,1600928335.046875
23.31,1600928335.0625
22.15,1600928335.078125
20.46,1600928335.09375
18.44,1600928335.109375
16.4,1600928335.125
14.55,1600928335.140625
12.96,1600928335.15625
11.59,1600928335.171875
10.28,1600928335.1875
8.94,1600928335.203125
7.46,1600928335.21875
5.85,1600928335.234375
4.08,1600928335.25
2.16,1600928335.265625
0.16,1600928335.28125
-1.78,1600928335.296875
-3.52,1600928335.3125
-5.03,1600928335.328125
-6.38,1600928335.34375
-7.86,1600928335.359375
-9.71,1600928335.375
-12.1,1600928335.390625
-14.96,1600928335.40625
-18.05,1600928335.421875
-21.13,1600928335.4375
-23.99,1600928335.453125
-26.6,1600928335.46875
-29.04,1600928335.484375
-31.49,1600928335.5
-34.14,1600928335.515625
-37.16,1600928335.53125
-40.71,1600928335.546875
-44.84,1600928335.5625
-49.36,1600928335.578125
-53.74,1600928335.59375
-57.17,1600928335.609375
-58.67,1600928335.625
-57.4,1600928335.640625
-52.93,1600928335.65625
-45.42,1600928335.671875
-35.6,1600928335.6875
-24.58,1600928335.703125
-13.56,1600928335.71875
-3.56,1600928335.734375
4.72,1600928335.75
11.04,1600928335.765625
15.51,1600928335.78125
18.43,1600928335.796875
20.23,1600928335.8125
21.28,1600928335.828125
21.86,1600928335.84375
22.12,1600928335.859375
22.21,1600928335.875
22.23,1600928335.890625
22.29,1600928335.90625
22.49,1600928335.921875
22.87,1600928335.9375
23.4,1600928335.953125
24.0,1600928335.96875
24.62,1600928335.984375
25.2,1600928336.0
25.79,1600928336.015625
26.43,1600928336.03125
27.12,1600928336.046875
27.79,1600928336.0625
28.27,1600928336.078125
28.31,1600928336.09375
27.73,1600928336.109375
26.48,1600928336.125
24.68,1600928336.140625
22.6,1600928336.15625
20.51,1600928336.171875
18.63,1600928336.1875
17.03,1600928336.203125
15.63,1600928336.21875
14.35,1600928336.234375
13.06,1600928336.25
11.68,1600928336.265625
10.13,1600928336.28125
8.36,1600928336.296875
6.33,1600928336.3125
4.03,1600928336.328125
1.62,1600928336.34375
-0.72,1600928336.359375
-2.8,1600928336.375
-4.54,1600928336.390625
-5.97,1600928336.40625
-7.27,1600928336.421875
-8.68,1600928336.4375
-10.39,1600928336.453125
-12.54,1600928336.46875
-15.15,1600928336.484375
-18.13,1600928336.5
-21.35,1600928336.515625
-24.65,1600928336.53125
-27.93,1600928336.546875
-31.24,1600928336.5625
-34.8,1600928336.578125
-38.91,1600928336.59375
-43.76,1600928336.609375
-49.19,1600928336.625
-54.49,1600928336.640625
-58.56,1600928336.65625
-60.06,1600928336.671875
-58.01,1600928336.6875
-52.08,1600928336.703125
-42.81,1600928336.71875
-31.4,1600928336.734375
-19.33,1600928336.75
-7.89,1600928336.765625
2.08,1600928336.78125
10.24,1600928336.796875
16.61,1600928336.8125
21.34,1600928336.828125
24.58,1600928336.84375
26.46,1600928336.859375
27.19,1600928336.875
27.03,1600928336.890625
26.36,1600928336.90625
25.55,1600928336.921875
24.87,1600928336.9375
24.45,1600928336.953125
24.31,1600928336.96875
24.47,1600928336.984375
24.9,1600928337.0
25.64,1600928337.015625
26.69,1600928337.03125
28.01,1600928337.046875
29.47,1600928337.0625
30.89,1600928337.078125
32.04,1600928337.09375
32.75,1600928337.109375
32.85,1600928337.125
32.29,1600928337.140625
31.12,1600928337.15625
29.52,1600928337.171875
27.72,1600928337.1875
25.98,1600928337.203125
24.45,1600928337.21875
23.15,1600928337.234375
21.98,1600928337.25
20.75,1600928337.265625
19.25,1600928337.28125
17.34,1600928337.296875
14.94,1600928337.3125
12.03,1600928337.328125
8.75,1600928337.34375
5.28,1600928337.359375
1.96,1600928337.375
-0.94,1600928337.390625
-3.26,1600928337.40625
-5.05,1600928337.421875
-6.58,1600928337.4375
-8.21,1600928337.453125
-10.24,1600928337.46875
-12.79,1600928337.484375
-15.78,1600928337.5
-18.96,1600928337.515625
-22.1,1600928337.53125
-25.0,1600928337.546875
-27.59,1600928337.5625
-29.98,1600928337.578125
-32.41,1600928337.59375
-35.25,1600928337.609375
-38.89,1600928337.625
-43.56,1600928337.640625
-49.13,1600928337.65625
-54.94,1600928337.671875
-59.9,1600928337.6875
-62.62,1600928337.703125
-61.87,1600928337.71875
-56.96,1600928337.734375
-47.99,1600928337.75
-35.89,1600928337.765625
-22.09,1600928337.78125
-8.25,1600928337.796875
4.26,1600928337.8125
14.56,1600928337.828125
22.35,1600928337.84375
27.78,1600928337.859375
31.21,1600928337.875
33.11,1600928337.890625
33.89,1600928337.90625
33.91,1600928337.921875
33.5,1600928337.9375
32.95,1600928337.953125
32.48,1600928337.96875
32.2,1600928337.984375
32.11,1600928338.0
32.11,1600928338.015625
32.12,1600928338.03125
32.08,1600928338.046875
32.04,1600928338.0625
32.12,1600928338.078125
32.44,1600928338.09375
33.03,1600928338.109375
33.78,1600928338.125
34.44,1600928338.140625
34.69,1600928338.15625
34.26,1600928338.171875
32.99,1600928338.1875
30.92,1600928338.203125
28.28,1600928338.21875
25.41,1600928338.234375
22.64,1600928338.25
20.17,1600928338.265625
18.07,1600928338.28125
16.24,1600928338.296875
14.52,1600928338.3125
12.69,1600928338.328125
10.6,1600928338.34375
8.21,1600928338.359375
5.56,1600928338.375
2.81,1600928338.390625
0.13,1600928338.40625
-2.34,1600928338.421875
-4.56,1600928338.4375
-6.61,1600928338.453125
-8.66,1600928338.46875
-10.87,1600928338.484375
-13.35,1600928338.5
-16.1,1600928338.515625
-18.99,1600928338.53125
-21.86,1600928338.546875
-24.55,1600928338.5625
-26.97,1600928338.578125
-29.14,1600928338.59375
-31.2,1600928338.609375
-33.45,1600928338.625
-36.26,1600928338.640625
-39.93,1600928338.65625
-44.55,1600928338.671875
-49.77,1600928338.6875
-54.82,1600928338.703125
-58.56,1600928338.71875
-59.79,1600928338.734375
-57.64,1600928338.75
-51.83,1600928338.765625
-42.81,1600928338.78125
-31.65,1600928338.796875
-19.65,1600928338.8125
-8.02,1600928338.828125
2.38,1600928338.84375
11.06,1600928338.859375
17.83,1600928338.875
22.69,1600928338.890625
25.74,1600928338.90625
27.21,1600928338.921875
27.42,1600928338.9375
26.81,1600928338.953125
25.81,1600928338.96875
24.76,1600928338.984375
23.89,1600928339.0
23.32,1600928339.015625
23.14,1600928339.03125
23.35,1600928339.046875
23.96,1600928339.0625
24.88,1600928339.078125
25.92,1600928339.09375
26.88,1600928339.109375
27.59,1600928339.125
28.02,1600928339.140625
28.18,1600928339.15625
28.13,1600928339.171875
27.82,1600928339.1875
27.16,1600928339.203125
26.03,1600928339.21875
24.42,1600928339.234375
22.47,1600928339.25
20.4,1600928339.265625
18.43,1600928339.28125
16.63,1600928339.296875
14.95,1600928339.3125
13.21,1600928339.328125
11.24,1600928339.34375
8.92,1600928339.359375
6.27,1600928339.375
3.4,1600928339.390625
0.49,1600928339.40625
-2.25,1600928339.421875
-4.68,1600928339.4375
-6.71,1600928339.453125
-8.34,1600928339.46875
-9.74,1600928339.484375
-11.17,1600928339.5
-12.89,1600928339.515625
-15.13,1600928339.53125
-17.9,1600928339.546875
-21.05,1600928339.5625
-24.25,1600928339.578125
-27.21,1600928339.59375
-29.74,1600928339.609375
-31.87,1600928339.625
-33.84,1600928339.640625
-36.04,1600928339.65625
-38.85,1600928339.671875
-42.54,1600928339.6875
-47.03,1600928339.703125
-51.84,1600928339.71875
-56.06,1600928339.734375
-58.56,1600928339.75
-58.26,1600928339.765625
-54.47,1600928339.78125
-47.17,1600928339.796875
-37.06,1600928339.8125
-25.39,1600928339.828125
-13.59,1600928339.84375
-2.86,1600928339.859375
6.05,1600928339.875
12.95,1600928339.890625
17.96,1600928339.90625
21.37,1600928339.921875
23.42,1600928339.9375
24.32,1600928339.953125
24.25,1600928339.96875
23.49,1600928339.984375
22.4,1600928340.0
21.34,1600928340.015625
20.63,1600928340.03125
20.37,1600928340.046875
20.53,1600928340.0625
20.97,1600928340.078125
21.58,1600928340.09375
22.26,1600928340.109375
22.95,1600928340.125
23.59,1600928340.140625
24.15,1600928340.15625
24.56,1600928340.171875
24.82,1600928340.1875
24.92,1600928340.203125
24.83,1600928340.21875
24.51,1600928340.234375
23.88,1600928340.25
22.89,1600928340.265625
21.57,1600928340.28125
19.99,1600928340.296875
18.27,1600928340.3125
16.46,1600928340.328125
14.55,1600928340.34375
12.46,1600928340.359375
10.16,1600928340.375
7.69,1600928340.390625
5.21,1600928340.40625
2.89,1600928340.421875
0.89,1600928340.4375
-0.76,1600928340.453125
-2.18,1600928340.46875
-3.55,1600928340.484375
-5.09,1600928340.5
-7.0,1600928340.515625
-9.38,1600928340.53125
-12.18,1600928340.546875
-15.22,1600928340.5625
-18.21,1600928340.578125
-20.84,1600928340.59375
-22.94,1600928340.609375
-24.58,1600928340.625
-26.06,1600928340.640625
-27.89,1600928340.65625
-30.56,1600928340.671875
-34.34,1600928340.6875
-39.09,1600928340.703125
-44.16,1600928340.71875
-48.51,1600928340.734375
-50.93,1600928340.75
-50.48,1600928340.765625
-46.7,1600928340.78125
-39.8,1600928340.796875
-30.55,1600928340.8125
-19.99,1600928340.828125
-9.21,1600928340.84375
0.87,1600928340.859375
9.56,1600928340.875
16.45,1600928340.890625
21.36,1600928340.90625
24.36,1600928340.921875
25.83,1600928340.9375
26.24,1600928340.953125
26.06,1600928340.96875
25.62,1600928340.984375
25.01,1600928341.0
24.22,1600928341.015625
23.27,1600928341.03125
22.37,1600928341.046875
21.82,1600928341.0625
21.88,1600928341.078125
22.62,1600928341.09375
23.8,1600928341.109375
25.01,1600928341.125
25.9,1600928341.140625
26.29,1600928341.15625
26.24,1600928341.171875
25.98,1600928341.1875
25.62,1600928341.203125
25.18,1600928341.21875
24.48,1600928341.234375
23.33,1600928341.25
21.65,1600928341.265625
19.53,1600928341.28125
17.2,1600928341.296875
14.88,1600928341.3125
12.65,1600928341.328125
10.43,1600928341.34375
8.08,1600928341.359375
5.47,1600928341.375
2.59,1600928341.390625
-0.38,1600928341.40625
-3.22,1600928341.421875
-5.74,1600928341.4375
-7.85,1600928341.453125
-9.69,1600928341.46875
-11.48,1600928341.484375
-13.46,1600928341.5
-15.79,1600928341.515625
-18.49,1600928341.53125
-21.44,1600928341.546875
-24.44,1600928341.5625
-27.27,1600928341.578125
-29.75,1600928341.59375
-31.83,1600928341.609375
-33.62,1600928341.625
-35.44,1600928341.640625
-37.74,1600928341.65625
-40.98,1600928341.671875
-45.41,1600928341.6875
-50.83,1600928341.703125
-56.49,1600928341.71875
-61.2,1600928341.734375
-63.59,1600928341.75
-62.58,1600928341.765625
-57.7,1600928341.78125
-49.27,1600928341.796875
-38.29,1600928341.8125
-26.14,1600928341.828125
-14.17,1600928341.84375
-3.43,1600928341.859375
5.49,1600928341.875
12.47,1600928341.890625
17.68,1600928341.90625
21.47,1600928341.921875
24.15,1600928341.9375
25.96,1600928341.953125
27.06,1600928341.96875
27.6,1600928341.984375
27.73,1600928342.0
27.7,1600928342.015625
27.78,1600928342.03125
28.2,1600928342.046875
29.01,1600928342.0625
30.12,1600928342.078125
31.3,1600928342.09375
32.3,1600928342.109375
32.96,1600928342.125
33.22,1600928342.140625
33.16,1600928342.15625
32.89,1600928342.171875
32.49,1600928342.1875
31.97,1600928342.203125
31.27,1600928342.21875
30.27,1600928342.234375
28.9,1600928342.25
27.14,1600928342.265625
25.08,1600928342.28125
22.85,1600928342.296875
20.59,1600928342.3125
18.37,1600928342.328125
16.15,1600928342.34375
13.84,1600928342.359375
11.34,1600928342.375
8.63,1600928342.390625
5.78,1600928342.40625
2.92,1600928342.421875
0.25,1600928342.4375
-2.13,1600928342.453125
-4.16,1600928342.46875
-5.9,1600928342.484375
-7.55,1600928342.5
-9.32,1600928342.515625
-11.46,1600928342.53125
-14.06,1600928342.546875
-17.08,1600928342.5625
-20.32,1600928342.578125
-23.45,1600928342.59375
-26.2,1600928342.609375
-28.42,1600928342.625
-30.2,1600928342.640625
-31.86,1600928342.65625
-33.93,1600928342.671875
-36.92,1600928342.6875
-41.12,1600928342.703125
-46.37,1600928342.71875
-51.97,1600928342.734375
-56.78,1600928342.75
-59.52,1600928342.765625
-59.15,1600928342.78125
-55.22,1600928342.796875
-47.94,1600928342.8125
-38.16,1600928342.828125
-27.07,1600928342.84375
-15.88,1600928342.859375
-5.6,1600928342.875
3.11,1600928342.890625
9.96,1600928342.90625
14.98,1600928342.921875
18.5,1600928342.9375
20.94,1600928342.953125
22.72,1600928342.96875
24.11,1600928342.984375
25.18,1600928343.0
25.88,1600928343.015625
26.13,1600928343.03125
25.97,1600928343.046875
25.63,1600928343.0625
25.37,1600928343.078125
25.45,1600928343.09375
25.99,1600928343.109375
26.88,1600928343.125
27.88,1600928343.140625
28.76,1600928343.15625
29.37,1600928343.171875
29.74,1600928343.1875
29.92,1600928343.203125
29.99,1600928343.21875
29.87,1600928343.234375
29.39,1600928343.25
28.35,1600928343.265625
26.67,1600928343.28125
24.42,1600928343.296875
21.89,1600928343.3125
19.42,1600928343.328125
17.26,1600928343.34375
15.46,1600928343.359375
13.87,1600928343.375
12.19,1600928343.390625
10.2,1600928343.40625
7.83,1600928343.421875
5.19,1600928343.4375
2.51,1600928343.453125
0.05,1600928343.46875
-2.06,1600928343.484375
-3.81,1600928343.5
-5.32,1600928343.515625
-6.81,1600928343.53125
-8.49,1600928343.546875
-10.58,1600928343.5625
-13.12,1600928343.578125
-16.02,1600928343.59375
-19.06,1600928343.609375
-21.94,1600928343.625
-24.46,1600928343.640625
-26.57,1600928343.65625
-28.39,1600928343.671875
-30.21,1600928343.6875
-32.38,1600928343.703125
-35.23,1600928343.71875
-39.0,1600928343.734375
-43.76,1600928343.75
-49.26,1600928343.765625
-54.89,1600928343.78125
-59.65,1600928343.796875
-62.35,1600928343.8125
-61.9,1600928343.828125
-57.73,1600928343.84375
-50.0,1600928343.859375
-39.62,1600928343.875
-27.97,1600928343.890625
-16.5,1600928343.90625
-6.31,1600928343.921875
2.04,1600928343.9375
8.56,1600928343.953125
13.56,1600928343.96875
17.5,1600928343.984375
20.75,1600928344.0
23.55,1600928344.015625
26.02,1600928344.03125
28.26,1600928344.046875
30.32,1600928344.0625
32.26,1600928344.078125
34.11,1600928344.09375
35.86,1600928344.109375
37.42,1600928344.125
38.71,1600928344.140625
39.66,1600928344.15625
40.27,1600928344.171875
40.61,1600928344.1875
40.74,1600928344.203125
40.7,1600928344.21875
40.4,1600928344.234375
39.63,1600928344.25
38.23,1600928344.265625
36.12,1600928344.28125
33.48,1600928344.296875
30.65,1600928344.3125
28.04,1600928344.328125
25.91,1600928344.34375
24.27,1600928344.359375
22.9,1600928344.375
21.48,1600928344.390625
19.81,1600928344.40625
17.86,1600928344.421875
15.77,1600928344.4375
13.73,1600928344.453125
11.83,1600928344.46875
10.07,1600928344.484375
8.38,1600928344.5
6.7,1600928344.515625
5.05,1600928344.53125
3.42,1600928344.546875
1.83,1600928344.5625
0.21,1600928344.578125
-1.58,1600928344.59375
-3.66,1600928344.609375
-6.1,1600928344.625
-8.88,1600928344.640625
-11.87,1600928344.65625
-14.89,1600928344.671875
-17.75,1600928344.6875
-20.32,1600928344.703125
-22.58,1600928344.71875
-24.61,1600928344.734375
-26.57,1600928344.75
-28.7,1600928344.765625
-31.23,1600928344.78125
-34.4,1600928344.796875
-38.37,1600928344.8125
-43.14,1600928344.828125
-48.4,1600928344.84375
-53.47,1600928344.859375
-57.33,1600928344.875
-58.83,1600928344.890625
-57.12,1600928344.90625
-51.92,1600928344.921875
-43.72,1600928344.9375
-33.56,1600928344.953125
-22.72,1600928344.96875
-12.33,1600928344.984375
-3.14,1600928345.0
4.5,1600928345.015625
10.53,1600928345.03125
15.07,1600928345.046875
18.33,1600928345.0625
20.62,1600928345.078125
22.3,1600928345.09375
23.71,1600928345.109375
25.05,1600928345.125
26.33,1600928345.140625
27.45,1600928345.15625
28.24,1600928345.171875
28.68,1600928345.1875
28.86,1600928345.203125
29.0,1600928345.21875
29.27,1600928345.234375
29.73,1600928345.25
30.31,1600928345.265625
30.86,1600928345.28125
31.26,1600928345.296875
31.43,1600928345.3125
31.37,1600928345.328125
31.07,1600928345.34375
30.45,1600928345.359375
29.39,1600928345.375
27.79,1600928345.390625
25.66,1600928345.40625
23.2,1600928345.421875
20.72,1600928345.4375
18.53,1600928345.453125
16.83,1600928345.46875
15.55,1600928345.484375
14.51,1600928345.5
13.43,1600928345.515625
12.12,1600928345.53125
10.51,1600928345.546875
8.64,1600928345.5625
6.61,1600928345.578125
4.46,1600928345.59375
2.26,1600928345.609375
0.08,1600928345.625
-1.96,1600928345.640625
-3.75,1600928345.65625
-5.26,1600928345.671875
-6.6,1600928345.6875
-7.93,1600928345.703125
-9.46,1600928345.71875
-11.31,1600928345.734375
-13.49,1600928345.75
-15.89,1600928345.765625
-18.41,1600928345.78125
-20.9,1600928345.796875
-23.31,1600928345.8125
-25.59,1600928345.828125
-27.74,1600928345.84375
-29.83,1600928345.859375
-32.06,1600928345.875
-34.63,1600928345.890625
-37.71,1600928345.90625
-41.19,1600928345.921875
-44.64,1600928345.9375
-47.22,1600928345.953125
-47.94,1600928345.96875
-46.0,1600928345.984375
-41.06,1600928346.0
-33.48,1600928346.015625
-24.19,1600928346.03125
-14.47,1600928346.046875
-5.49,1600928346.0625
1.94,1600928346.078125
7.54,1600928346.09375
11.46,1600928346.109375
14.1,1600928346.125
15.85,1600928346.140625
16.99,1600928346.15625
17.66,1600928346.171875
17.94,1600928346.1875
17.95,1600928346.203125
17.9,1600928346.21875
18.0,1600928346.234375
18.38,1600928346.25
18.99,1600928346.265625
19.67,1600928346.28125
20.19,1600928346.296875
20.43,1600928346.3125
20.4,1600928346.328125
20.27,1600928346.34375
20.24,1600928346.359375
20.42,1600928346.375
20.75,1600928346.390625
21.05,1600928346.40625
21.13,1600928346.421875
20.86,1600928346.4375
20.26,1600928346.453125
19.41,1600928346.46875
18.44,1600928346.484375
17.42,1600928346.5
16.3,1600928346.515625
15.02,1600928346.53125
13.52,1600928346.546875
11.84,1600928346.5625
10.12,1600928346.578125
8.56,1600928346.59375
7.32,1600928346.609375
6.45,1600928346.625
5.87,1600928346.640625
5.41,1600928346.65625
4.86,1600928346.671875
4.02,1600928346.6875
2.82,1600928346.703125
1.26,1600928346.71875
-0.54,1600928346.734375
-2.41,1600928346.75
-4.17,1600928346.765625
-5.74,1600928346.78125
-7.11,1600928346.796875
-8.37,1600928346.8125
-9.65,1600928346.828125
-11.06,1600928346.84375
-12.67,1600928346.859375
-14.48,1600928346.875
-16.48,1600928346.890625
-18.7,1600928346.90625
-21.19,1600928346.921875
-24.06,1600928346.9375
-27.39,1600928346.953125
-31.23,1600928346.96875
-35.51,1600928346.984375
-40.03,1600928347.0
-44.38,1600928347.015625
-47.92,1600928347.03125
-49.93,1600928347.046875
-49.73,1600928347.0625
-46.95,1600928347.078125
-41.65,1600928347.09375
-34.35,1600928347.109375
-25.9,1600928347.125
-17.27,1600928347.140625
-9.31,1600928347.15625
-2.62,1600928347.171875
2.53,1600928347.1875
6.15,1600928347.203125
8.5,1600928347.21875
9.99,1600928347.234375
11.02,1600928347.25
11.93,1600928347.265625
12.86,1600928347.28125
13.84,1600928347.296875
14.83,1600928347.3125
15.83,1600928347.328125
16.84,1600928347.34375
17.89,1600928347.359375
18.93,1600928347.375
19.84,1600928347.390625
20.41,1600928347.40625
20.56,1600928347.421875
20.29,1600928347.4375
19.79,1600928347.453125
19.27,1600928347.46875
18.87,1600928347.484375
18.56,1600928347.5
18.18,1600928347.515625
17.55,1600928347.53125
16.56,1600928347.546875
15.23,1600928347.5625
13.7,1600928347.578125
12.1,1600928347.59375
10.49,1600928347.609375
8.9,1600928347.625
7.29,1600928347.640625
5.66,1600928347.65625
4.09,1600928347.671875
2.66,1600928347.6875
1.45,1600928347.703125
0.45,1600928347.71875
-0.41,1600928347.734375
-1.21,1600928347.75
-2.03,1600928347.765625
-2.92,1600928347.78125
-3.91,1600928347.796875
-5.01,1600928347.8125
-6.22,1600928347.828125
-7.53,1600928347.84375
-8.9,1600928347.859375
-10.27,1600928347.875
-11.59,1600928347.890625
-12.9,1600928347.90625
-14.3,1600928347.921875
-15.91,1600928347.9375
-17.83,1600928347.953125
-20.02,1600928347.96875
-22.33,1600928347.984375
-24.57,1600928348.0
-26.69,1600928348.015625
-28.8,1600928348.03125
-31.15,1600928348.046875
-34.06,1600928348.0625
-37.68,1600928348.078125
-41.95,1600928348.09375
-46.5,1600928348.109375
-50.71,1600928348.125
-53.82,1600928348.140625
-55.08,1600928348.15625
-53.95,1600928348.171875
-50.2,1600928348.1875
-44.03,1600928348.203125
-35.98,1600928348.21875
-26.93,1600928348.234375
-17.82,1600928348.25
-9.53,1600928348.265625
-2.63,1600928348.28125
2.62,1600928348.296875
6.33,1600928348.3125
8.83,1600928348.328125
10.52,1600928348.34375
11.76,1600928348.359375
12.77,1600928348.375
13.55,1600928348.390625
14.06,1600928348.40625
14.32,1600928348.421875
14.46,1600928348.4375
14.77,1600928348.453125
15.53,1600928348.46875
16.85,1600928348.484375
18.62,1600928348.5
20.55,1600928348.515625
22.28,1600928348.53125
23.61,1600928348.546875
24.52,1600928348.5625
25.12,1600928348.578125
25.52,1600928348.59375
25.73,1600928348.609375
25.7,1600928348.625
25.35,1600928348.640625
24.68,1600928348.65625
23.84,1600928348.671875
22.97,1600928348.6875
22.17,1600928348.703125
21.4,1600928348.71875
20.48,1600928348.734375
19.2,1600928348.75
17.43,1600928348.765625
15.2,1600928348.78125
12.69,1600928348.796875
10.22,1600928348.8125
8.04,1600928348.828125
6.33,1600928348.84375
5.06,1600928348.859375
4.06,1600928348.875
3.08,1600928348.890625
1.95,1600928348.90625
0.62,1600928348.921875
-0.86,1600928348.9375
-2.34,1600928348.953125
-3.76,1600928348.96875
-5.14,1600928348.984375
-6.61,1600928349.0
-8.29,1600928349.015625
-10.25,1600928349.03125
-12.42,1600928349.046875
-14.66,1600928349.0625
-16.8,1600928349.078125
-18.73,1600928349.09375
-20.42,1600928349.109375
-21.95,1600928349.125
-23.46,1600928349.140625
-25.2,1600928349.15625
-27.45,1600928349.171875
-30.46,1600928349.1875
-34.3,1600928349.203125
-38.74,1600928349.21875
-43.16,1600928349.234375
-46.63,1600928349.25
-48.17,1600928349.265625
-47.03,1600928349.28125
-42.92,1600928349.296875
-36.12,1600928349.3125
-27.43,1600928349.328125
-17.86,1600928349.34375
-8.44,1600928349.359375
0.02,1600928349.375
7.06,1600928349.390625
12.52,1600928349.40625
16.48,1600928349.421875
19.17,1600928349.4375
20.85,1600928349.453125
21.8,1600928349.46875
22.22,1600928349.484375
22.28,1600928349.5
22.1,1600928349.515625
21.79,1600928349.53125
21.42,1600928349.546875
21.07,1600928349.5625
20.83,1600928349.578125
20.77,1600928349.59375
20.95,1600928349.609375
21.37,1600928349.625
22.02,1600928349.640625
22.8,1600928349.65625
23.58,1600928349.671875
24.22,1600928349.6875
24.63,1600928349.703125
24.73,1600928349.71875
24.52,1600928349.734375
24.0,1600928349.75
23.18,1600928349.765625
22.09,1600928349.78125
20.79,1600928349.796875
19.38,1600928349.8125
17.96,1600928349.828125
16.6,1600928349.84375
15.35,1600928349.859375
14.16,1600928349.875
12.97,1600928349.890625
11.66,1600928349.90625
10.16,1600928349.921875
8.46,1600928349.9375
6.58,1600928349.953125
4.64,1600928349.96875
2.76,1600928349.984375
1.1,1600928350.0
-0.28,1600928350.015625
-1.43,1600928350.03125
-2.54,1600928350.046875
-3.87,1600928350.0625
-5.64,1600928350.078125
-7.93,1600928350.09375
-10.67,1600928350.109375
-13.57,1600928350.125
-16.35,1600928350.140625
-18.77,1600928350.15625
-20.75,1600928350.171875
-22.41,1600928350.1875
-23.96,1600928350.203125
-25.73,1600928350.21875
-28.03,1600928350.234375
-31.2,1600928350.25
-35.33,1600928350.265625
-40.3,1600928350.28125
-45.52,1600928350.296875
-50.02,1600928350.3125
-52.6,1600928350.328125
-52.18,1600928350.34375
-48.23,1600928350.359375
-40.93,1600928350.375
-31.2,1600928350.390625
-20.36,1600928350.40625
-9.75,1600928350.421875
-0.4,1600928350.4375
7.16,1600928350.453125
12.82,1600928350.46875
16.76,1600928350.484375
19.26,1600928350.5
20.64,1600928350.515625
21.21,1600928350.53125
21.27,1600928350.546875
21.09,1600928350.5625
20.84,1600928350.578125
20.61,1600928350.59375
20.37,1600928350.609375
20.1,1600928350.625
19.78,1600928350.640625
19.5,1600928350.65625
19.4,1600928350.671875
19.64,1600928350.6875
20.35,1600928350.703125
21.49,1600928350.71875
22.94,1600928350.734375
24.43,1600928350.75
25.63,1600928350.765625
26.27,1600928350.78125
26.17,1600928350.796875
25.32,1600928350.8125
23.85,1600928350.828125
21.99,1600928350.84375
19.99,1600928350.859375
18.02,1600928350.875
16.18,1600928350.890625
14.44,1600928350.90625
12.72,1600928350.921875
10.93,1600928350.9375
8.98,1600928350.953125
6.84,1600928350.96875
4.49,1600928350.984375
2.0,1600928351.0
-0.53,1600928351.015625
-2.96,1600928351.03125
-5.17,1600928351.046875
-7.06,1600928351.0625
-8.63,1600928351.078125
-9.99,1600928351.09375
-11.31,1600928351.109375
-12.81,1600928351.125
-14.63,1600928351.140625
-16.88,1600928351.15625
-19.53,1600928351.171875
-22.45,1600928351.1875
-25.45,1600928351.203125
-28.3,1600928351.21875
-30.85,1600928351.234375
-33.09,1600928351.25
-35.17,1600928351.265625
-37.45,1600928351.28125
-40.39,1600928351.296875
-44.43,1600928351.3125
-49.74,1600928351.328125
-56.08,1600928351.34375
-62.68,1600928351.359375
-68.34,1600928351.375
-71.72,1600928351.390625
-71.8,1600928351.40625
-68.1,1600928351.421875
-60.94,1600928351.4375
-51.28,1600928351.453125
-40.41,1600928351.46875
-29.65,1600928351.484375
-20.06,1600928351.5
-12.33,1600928351.515625
-6.79,1600928351.53125
-3.48,1600928351.546875
-2.18,1600928351.5625
-2.5,1600928351.578125
-3.93,1600928351.59375
-5.97,1600928351.609375
-8.16,1600928351.625
-10.21,1600928351.640625
-11.95,1600928351.65625
-13.28,1600928351.671875
-14.1,1600928351.6875
-14.26,1600928351.703125
-13.54,1600928351.71875
-11.7,1600928351.734375
-8.51,1600928351.75
-3.85,1600928351.765625
2.27,1600928351.78125
9.67,1600928351.796875
18.05,1600928351.8125
27.05,1600928351.828125
36.25,1600928351.84375
45.19,1600928351.859375
53.39,1600928351.875
60.41,1600928351.890625
65.85,1600928351.90625
69.51,1600928351.921875
71.37,1600928351.9375
71.62,1600928351.953125
70.61,1600928351.96875
68.68,1600928351.984375
66.11,1600928352.0
63.08,1600928352.015625
59.62,1600928352.03125
55.76,1600928352.046875
51.5,1600928352.0625
46.91,1600928352.078125
42.08,1600928352.09375
37.22,1600928352.109375
32.48,1600928352.125
28.01,1600928352.140625
23.81,1600928352.15625
19.8,1600928352.171875
15.8,1600928352.1875
11.66,1600928352.203125
7.3,1600928352.21875
2.75,1600928352.234375
-1.87,1600928352.25
-6.42,1600928352.265625
-10.8,1600928352.28125
-14.92,1600928352.296875
-18.81,1600928352.3125
-22.55,1600928352.328125
-26.33,1600928352.34375
-30.42,1600928352.359375
-35.15,1600928352.375
-40.73,1600928352.390625
-47.01,1600928352.40625
-53.34,1600928352.421875
-58.6,1600928352.4375
-61.43,1600928352.453125
-60.67,1600928352.46875
-55.79,1600928352.484375
-47.11,1600928352.5
-35.7,1600928352.515625
-23.12,1600928352.53125
-10.84,1600928352.546875
0.03,1600928352.5625
8.94,1600928352.578125
15.86,1600928352.59375
21.04,1600928352.609375
24.8,1600928352.625
27.42,1600928352.640625
29.12,1600928352.65625
30.08,1600928352.671875
30.55,1600928352.6875
30.81,1600928352.703125
31.13,1600928352.71875
31.7,1600928352.734375
32.53,1600928352.75
33.47,1600928352.765625
34.34,1600928352.78125
34.99,1600928352.796875
35.4,1600928352.8125
35.71,1600928352.828125
36.08,1600928352.84375
36.57,1600928352.859375
37.09,1600928352.875
37.41,1600928352.890625
37.22,1600928352.90625
36.38,1600928352.921875
34.89,1600928352.9375
33.01,1600928352.953125
31.07,1600928352.96875
29.33,1600928352.984375
27.86,1600928353.0
26.54,1600928353.015625
25.11,1600928353.03125
23.4,1600928353.046875
21.4,1600928353.0625
19.22,1600928353.078125
17.08,1600928353.09375
15.03,1600928353.109375
12.99,1600928353.125
10.74,1600928353.140625
8.16,1600928353.15625
5.28,1600928353.171875
2.38,1600928353.1875
-0.22,1600928353.203125
-2.35,1600928353.21875
-4.09,1600928353.234375
-5.83,1600928353.25
-7.98,1600928353.265625
-10.84,1600928353.28125
-14.45,1600928353.296875
-18.58,1600928353.3125
-22.91,1600928353.328125
-27.14,1600928353.34375
-31.1,1600928353.359375
-34.77,1600928353.375
-38.23,1600928353.390625
-41.6,1600928353.40625
-45.12,1600928353.421875
-49.06,1600928353.4375
-53.67,1600928353.453125
-58.92,1600928353.46875
-64.34,1600928353.484375
-68.96,1600928353.5
-71.45,1600928353.515625
-70.62,1600928353.53125
-65.75,1600928353.546875
-56.96,1600928353.5625
-45.19,1600928353.578125
-31.89,1600928353.59375
-18.56,1600928353.609375
-6.41,1600928353.625
3.85,1600928353.640625
11.95,1600928353.65625
17.95,1600928353.671875
22.13,1600928353.6875
24.85,1600928353.703125
26.52,1600928353.71875
27.55,1600928353.734375
28.27,1600928353.75
28.87,1600928353.765625
29.42,1600928353.78125
29.89,1600928353.796875
30.29,1600928353.8125
30.6,1600928353.828125
30.92,1600928353.84375
31.3,1600928353.859375
31.77,1600928353.875
32.3,1600928353.890625
32.82,1600928353.90625
33.25,1600928353.921875
33.54,1600928353.9375
33.65,1600928353.953125
33.54,1600928353.96875
33.21,1600928353.984375
32.6,1600928354.0
31.66,1600928354.015625
30.36,1600928354.03125
28.67,1600928354.046875
26.68,1600928354.0625
24.51,1600928354.078125
22.31,1600928354.09375
20.2,1600928354.109375
18.22,1600928354.125
16.35,1600928354.140625
14.52,1600928354.15625
12.67,1600928354.171875
10.74,1600928354.1875
8.72,1600928354.203125
6.6,1600928354.21875
4.4,1600928354.234375
2.14,1600928354.25
-0.08,1600928354.265625
-2.2,1600928354.28125
-4.16,1600928354.296875
-6.03,1600928354.3125
-7.97,1600928354.328125
-10.17,1600928354.34375
-12.73,1600928354.359375
-15.62,1600928354.375
-18.71,1600928354.390625
-21.79,1600928354.40625
-24.76,1600928354.421875
-27.57,1600928354.4375
-30.27,1600928354.453125
-32.93,1600928354.46875
-35.69,1600928354.484375
-38.69,1600928354.5
-42.14,1600928354.515625
-46.16,1600928354.53125
-50.59,1600928354.546875
-54.84,1600928354.5625
-57.89,1600928354.578125
-58.5,1600928354.59375
-55.69,1600928354.609375
-49.11,1600928354.625
-39.3,1600928354.640625
-27.48,1600928354.65625
-15.24,1600928354.671875
-3.95,1600928354.6875
5.51,1600928354.703125
12.81,1600928354.71875
18.12,1600928354.734375
21.71,1600928354.75
23.88,1600928354.765625
24.81,1600928354.78125
24.7,1600928354.796875
23.76,1600928354.8125
22.38,1600928354.828125
20.99,1600928354.84375
20.0,1600928354.859375
19.68,1600928354.875
20.02,1600928354.890625
20.88,1600928354.90625
21.96,1600928354.921875
23.02,1600928354.9375
23.98,1600928354.953125
24.87,1600928354.96875
25.81,1600928354.984375
26.83,1600928355.0
27.81,1600928355.015625
28.5,1600928355.03125
28.56,1600928355.046875
27.79,1600928355.0625
26.18,1600928355.078125
23.96,1600928355.09375
21.46,1600928355.109375
18.98,1600928355.125
16.68,1600928355.140625
14.54,1600928355.15625
12.42,1600928355.171875
10.2,1600928355.1875
7.86,1600928355.203125
5.5,1600928355.21875
3.29,1600928355.234375
1.35,1600928355.25
-0.33,1600928355.265625
-1.86,1600928355.28125
-3.42,1600928355.296875
-5.15,1600928355.3125
-7.13,1600928355.328125
-9.36,1600928355.34375
-11.82,1600928355.359375
-14.52,1600928355.375
-17.44,1600928355.390625
-20.56,1600928355.40625
-23.74,1600928355.421875
-26.81,1600928355.4375
-29.6,1600928355.453125
-32.08,1600928355.46875
-34.44,1600928355.484375
-37.01,1600928355.5
-40.26,1600928355.515625
-44.52,1600928355.53125
-49.81,1600928355.546875
-55.67,1600928355.5625
-61.15,1600928355.578125
-64.98,1600928355.59375
-65.88,1600928355.609375
-62.99,1600928355.625
-56.13,1600928355.640625
-45.93,1600928355.65625
-33.6,1600928355.671875
-20.63,1600928355.6875
-8.33,1600928355.703125
2.39,1600928355.71875
11.09,1600928355.734375
17.73,1600928355.75
22.51,1600928355.765625
25.74,1600928355.78125
27.8,1600928355.796875
29.06,1600928355.8125
29.9,1600928355.828125
30.64,1600928355.84375
31.46,1600928355.859375
32.44,1600928355.875
33.51,1600928355.890625
34.52,1600928355.90625
35.35,1600928355.921875
35.98,1600928355.9375
36.47,1600928355.953125
37.0,1600928355.96875
37.7,1600928355.984375
38.6,1600928356.0
39.6,1600928356.015625
40.39,1600928356.03125
40.66,1600928356.046875
40.14,1600928356.0625
38.71,1600928356.078125
36.44,1600928356.09375
33.52,1600928356.109375
30.15,1600928356.125
26.56,1600928356.140625
22.93,1600928356.15625
19.42,1600928356.171875
16.17,1600928356.1875
13.22,1600928356.203125
10.53,1600928356.21875
7.94,1600928356.234375
5.23,1600928356.25
2.28,1600928356.265625
-0.93,1600928356.28125
-4.26,1600928356.296875
-7.43,1600928356.3125
-10.22,1600928356.328125
-12.49,1600928356.34375
-14.28,1600928356.359375
-15.82,1600928356.375
-17.4,1600928356.390625
-19.32,1600928356.40625
-21.74,1600928356.421875
-24.66,1600928356.4375
-27.91,1600928356.453125
-31.18,1600928356.46875
-34.21,1600928356.484375
-36.83,1600928356.5
-39.08,1600928356.515625
-41.26,1600928356.53125
-43.83,1600928356.546875
-47.31,1600928356.5625
-52.03,1600928356.578125
-57.92,1600928356.59375
-64.32,1600928356.609375
-70.02,1600928356.625
-73.55,1600928356.640625
-73.53,1600928356.65625
-69.22,1600928356.671875
-60.67,1600928356.6875
-48.82,1600928356.703125
-35.09,1600928356.71875
-21.09,1600928356.734375
-8.15,1600928356.75
2.83,1600928356.765625
11.49,1600928356.78125
17.86,1600928356.796875
22.28,1600928356.8125
25.24,1600928356.828125
27.28,1600928356.84375
28.85,1600928356.859375
30.26,1600928356.875
31.62,1600928356.890625
32.9,1600928356.90625
34.0,1600928356.921875
34.85,1600928356.9375
35.44,1600928356.953125
35.87,1600928356.96875
36.26,1600928356.984375
36.68,1600928357.0
37.1,1600928357.015625
37.45,1600928357.03125
37.63,1600928357.046875
37.54,1600928357.0625
37.14,1600928357.078125
36.45,1600928357.09375
35.49,1600928357.109375
34.29,1600928357.125
32.88,1600928357.140625
31.26,1600928357.15625
29.48,1600928357.171875
27.61,1600928357.1875
25.7,1600928357.203125
23.74,1600928357.21875
21.67,1600928357.234375
19.44,1600928357.25
17.03,1600928357.265625
14.5,1600928357.28125
11.95,1600928357.296875
9.49,1600928357.3125
7.13,1600928357.328125
4.81,1600928357.34375
2.46,1600928357.359375
0.01,1600928357.375
-2.45,1600928357.390625
-4.77,1600928357.40625
-6.83,1600928357.421875
-8.67,1600928357.4375
-10.51,1600928357.453125
-12.65,1600928357.46875
-15.35,1600928357.484375
-18.65,1600928357.5
-22.38,1600928357.515625
-26.23,1600928357.53125
-29.93,1600928357.546875
-33.31,1600928357.5625
-36.41,1600928357.578125
-39.34,1600928357.59375
-42.26,1600928357.609375
-45.38,1600928357.625
-48.94,1600928357.640625
-53.28,1600928357.65625
-58.61,1600928357.671875
-64.84,1600928357.6875
-71.22,1600928357.703125
-76.4,1600928357.71875
-78.63,1600928357.734375
-76.4,1600928357.75
-69.06,1600928357.765625
-57.14,1600928357.78125
-42.2,1600928357.796875
-26.35,1600928357.8125
-11.52,1600928357.828125
1.04,1600928357.84375
10.94,1600928357.859375
18.42,1600928357.875
23.99,1600928357.890625
28.16,1600928357.90625
31.26,1600928357.921875
33.47,1600928357.9375
34.97,1600928357.953125
35.95,1600928357.96875
36.62,1600928357.984375
37.15,1600928358.0
37.65,1600928358.015625
38.16,1600928358.03125
38.67,1600928358.046875
39.16,1600928358.0625
39.68,1600928358.078125
40.29,1600928358.09375
41.02,1600928358.109375
41.88,1600928358.125
42.76,1600928358.140625
43.43,1600928358.15625
43.63,1600928358.171875
43.18,1600928358.1875
41.97,1600928358.203125
40.1,1600928358.21875
37.77,1600928358.234375
35.28,1600928358.25
32.86,1600928358.265625
30.65,1600928358.28125
28.64,1600928358.296875
26.74,1600928358.3125
24.78,1600928358.328125
22.6,1600928358.34375
20.14,1600928358.359375
17.42,1600928358.375
14.59,1600928358.390625
11.87,1600928358.40625
9.37,1600928358.421875
7.12,1600928358.4375
5.0,1600928358.453125
2.82,1600928358.46875
0.43,1600928358.484375
-2.16,1600928358.5
-4.85,1600928358.515625
-7.45,1600928358.53125
-9.88,1600928358.546875
-12.24,1600928358.5625
-14.69,1600928358.578125
-17.49,1600928358.59375
-20.74,1600928358.609375
-24.43,1600928358.625
-28.38,1600928358.640625
-32.34,1600928358.65625
-36.12,1600928358.671875
-39.64,1600928358.6875
-42.97,1600928358.703125
-46.31,1600928358.71875
-49.99,1600928358.734375
-54.37,1600928358.75
-59.72,1600928358.765625
-65.98,1600928358.78125
-72.61,1600928358.796875
-78.47,1600928358.8125
-82.03,1600928358.828125
-81.77,1600928358.84375
-76.66,1600928358.859375
-66.54,1600928358.875
-52.32,1600928358.890625
-35.64,1600928358.90625
-18.52,1600928358.921875
-2.8,1600928358.9375
10.26,1600928358.953125
20.08,1600928358.96875
26.71,1600928358.984375
30.59,1600928359.0
32.35,1600928359.015625
32.6,1600928359.03125
31.83,1600928359.046875
30.49,1600928359.0625
28.92,1600928359.078125
27.41,1600928359.09375
26.24,1600928359.109375
25.6,1600928359.125
25.5,1600928359.140625
25.91,1600928359.15625
26.72,1600928359.171875
27.87,1600928359.1875
29.37,1600928359.203125
31.25,1600928359.21875
33.4,1600928359.234375
35.51,1600928359.25
37.09,1600928359.265625
37.63,1600928359.28125
36.84,1600928359.296875
34.76,1600928359.3125
31.79,1600928359.328125
28.52,1600928359.34375
25.44,1600928359.359375
22.83,1600928359.375
20.68,1600928359.390625
18.78,1600928359.40625
16.89,1600928359.421875
14.86,1600928359.4375
12.72,1600928359.453125
10.64,1600928359.46875
8.84,1600928359.484375
7.56,1600928359.5
7.0,1600928359.515625
7.27,1600928359.53125
8.32,1600928359.546875
9.93,1600928359.5625
11.66,1600928359.578125
12.94,1600928359.59375
13.24,1600928359.609375
12.18,1600928359.625
9.69,1600928359.640625
5.97,1600928359.65625
1.37,1600928359.671875
-3.64,1600928359.6875
-8.56,1600928359.703125
-12.82,1600928359.71875
-15.79,1600928359.734375
-16.88,1600928359.75
-15.73,1600928359.765625
-12.47,1600928359.78125
-7.83,1600928359.796875
-3.03,1600928359.8125
0.47,1600928359.828125
1.44,1600928359.84375
-0.69,1600928359.859375
-5.65,1600928359.875
-12.22,1600928359.890625
-18.56,1600928359.90625
-22.64,1600928359.921875
-22.75,1600928359.9375
-17.95,1600928359.953125
-8.35,1600928359.96875
4.98,1600928359.984375
20.33,1600928360.0
35.81,1600928360.015625
49.83,1600928360.03125
61.38,1600928360.046875
70.07,1600928360.0625
75.99,1600928360.078125
79.43,1600928360.09375
80.58,1600928360.109375
79.44,1600928360.125
75.82,1600928360.140625
69.49,1600928360.15625
60.45,1600928360.171875
49.06,1600928360.1875
36.18,1600928360.203125
22.96,1600928360.21875
10.66,1600928360.234375
0.35,1600928360.25
-7.34,1600928360.265625
-12.32,1600928360.28125
-15.01,1600928360.296875
-16.17,1600928360.3125
-16.72,1600928360.328125
-17.44,1600928360.34375
-18.87,1600928360.359375
-21.2,1600928360.375
-24.33,1600928360.390625
-27.9,1600928360.40625
-31.49,1600928360.421875
-34.76,1600928360.4375
-37.56,1600928360.453125
-39.94,1600928360.46875
-42.09,1600928360.484375
-44.25,1600928360.5
-46.61,1600928360.515625
-49.28,1600928360.53125
-52.24,1600928360.546875
-55.38,1600928360.5625
-58.46,1600928360.578125
-61.12,1600928360.59375
-62.86,1600928360.609375
-63.18,1600928360.625
-61.73,1600928360.640625
-58.58,1600928360.65625
-54.21,1600928360.671875
-49.51,1600928360.6875
-45.39,1600928360.703125
-42.53,1600928360.71875
-41.11,1600928360.734375
-40.85,1600928360.75
-41.21,1600928360.765625
-41.74,1600928360.78125
-42.28,1600928360.796875
-42.97,1600928360.8125
-44.15,1600928360.828125
-46.15,1600928360.84375
-49.19,1600928360.859375
-53.28,1600928360.875
-58.2,1600928360.890625
-63.39,1600928360.90625
-67.83,1600928360.921875
-70.13,1600928360.9375
-68.77,1600928360.953125
-62.63,1600928360.96875
-51.41,1600928360.984375
-35.91,1600928361.0
-17.84,1600928361.015625
0.63,1600928361.03125
17.51,1600928361.046875
31.45,1600928361.0625
41.89,1600928361.078125
48.93,1600928361.09375
53.03,1600928361.109375
54.89,1600928361.125
55.19,1600928361.140625
54.63,1600928361.15625
53.75,1600928361.171875
52.92,1600928361.1875
52.34,1600928361.203125
51.98,1600928361.21875
51.77,1600928361.234375
51.65,1600928361.25
51.61,1600928361.265625
51.68,1600928361.28125
51.92,1600928361.296875
52.38,1600928361.3125
53.04,1600928361.328125
53.87,1600928361.34375
54.76,1600928361.359375
55.51,1600928361.375
55.8,1600928361.390625
55.34,1600928361.40625
53.9,1600928361.421875
51.43,1600928361.4375
48.13,1600928361.453125
44.3,1600928361.46875
40.33,1600928361.484375
36.47,1600928361.5
32.86,1600928361.515625
29.48,1600928361.53125
26.17,1600928361.546875
22.74,1600928361.5625
19.0,1600928361.578125
14.89,1600928361.59375
10.48,1600928361.609375
6.0,1600928361.625
1.76,1600928361.640625
-1.96,1600928361.65625
-5.12,1600928361.671875
-7.93,1600928361.6875
-10.77,1600928361.703125
-14.08,1600928361.71875
-18.05,1600928361.734375
-22.58,1600928361.75
-27.26,1600928361.765625
-31.6,1600928361.78125
-35.25,1600928361.796875
-38.11,1600928361.8125
-40.39,1600928361.828125
-42.43,1600928361.84375
-44.6,1600928361.859375
-47.25,1600928361.875
-50.67,1600928361.890625
-55.07,1600928361.90625
-60.38,1600928361.921875
-66.14,1600928361.9375
-71.29,1600928361.953125
-74.32,1600928361.96875
-73.7,1600928361.984375
-68.41,1600928362.0
-58.48,1600928362.015625
-44.98,1600928362.03125
-29.74,1600928362.046875
-14.71,1600928362.0625
-1.42,1600928362.078125
9.38,1600928362.09375
17.59,1600928362.109375
23.53,1600928362.125
27.63,1600928362.140625
30.31,1600928362.15625
31.92,1600928362.171875
32.79,1600928362.1875
33.28,1600928362.203125
33.66,1600928362.21875
34.07,1600928362.234375
34.49,1600928362.25
34.84,1600928362.265625
35.0,1600928362.28125
34.93,1600928362.296875
34.67,1600928362.3125
34.26,1600928362.328125
33.77,1600928362.34375
33.24,1600928362.359375
32.7,1600928362.375
32.19,1600928362.390625
31.73,1600928362.40625
31.25,1600928362.421875
30.64,1600928362.4375
29.72,1600928362.453125
28.34,1600928362.46875
26.4,1600928362.484375
24.0,1600928362.5
21.32,1600928362.515625
18.64,1600928362.53125
16.21,1600928362.546875
14.15,1600928362.5625
12.36,1600928362.578125
10.58,1600928362.59375
8.44,1600928362.609375
5.72,1600928362.625
2.38,1600928362.640625
-1.36,1600928362.65625
-5.13,1600928362.671875
-8.55,1600928362.6875
-11.41,1600928362.703125
-13.69,1600928362.71875
-15.53,1600928362.734375
-17.17,1600928362.75
-18.82,1600928362.765625
-20.65,1600928362.78125
-22.73,1600928362.796875
-25.01,1600928362.8125
-27.42,1600928362.828125
-29.79,1600928362.84375
-32.0,1600928362.859375
-34.0,1600928362.875
-35.98,1600928362.890625
-38.23,1600928362.90625
-41.18,1600928362.921875
-45.14,1600928362.9375
-50.1,1600928362.953125
-55.57,1600928362.96875
-60.56,1600928362.984375
-63.75,1600928363.0
-63.87,1600928363.015625
-60.12,1600928363.03125
-52.39,1600928363.046875
-41.4,1600928363.0625
-28.43,1600928363.078125
-14.97,1600928363.09375
-2.38,1600928363.109375
8.41,1600928363.125
16.94,1600928363.140625
23.14,1600928363.15625
27.26,1600928363.171875
29.7,1600928363.1875
30.97,1600928363.203125
31.56,1600928363.21875
31.88,1600928363.234375
32.2,1600928363.25
32.59,1600928363.265625
33.05,1600928363.28125
33.54,1600928363.296875
34.04,1600928363.3125
34.56,1600928363.328125
35.1,1600928363.34375
35.62,1600928363.359375
36.01,1600928363.375
36.17,1600928363.390625
36.07,1600928363.40625
35.74,1600928363.421875
35.26,1600928363.4375
34.71,1600928363.453125
34.06,1600928363.46875
33.24,1600928363.484375
32.14,1600928363.5
30.69,1600928363.515625
28.92,1600928363.53125
26.93,1600928363.546875
24.86,1600928363.5625
22.83,1600928363.578125
20.85,1600928363.59375
18.81,1600928363.609375
16.56,1600928363.625
13.96,1600928363.640625
11.0,1600928363.65625
7.79,1600928363.671875
4.57,1600928363.6875
1.63,1600928363.703125
-0.76,1600928363.71875
-2.51,1600928363.734375
-3.69,1600928363.75
-4.5,1600928363.765625
-5.26,1600928363.78125
-6.3,1600928363.796875
-7.86,1600928363.8125
-10.04,1600928363.828125
-12.79,1600928363.84375
-15.87,1600928363.859375
-18.98,1600928363.875
-21.91,1600928363.890625
-24.6,1600928363.90625
-27.18,1600928363.921875
-29.98,1600928363.9375
-33.37,1600928363.953125
-37.69,1600928363.96875
-43.12,1600928363.984375
-49.49,1600928364.0
-56.29,1600928364.015625
-62.59,1600928364.03125
-67.19,1600928364.046875
-68.84,1600928364.0625
-66.64,1600928364.078125
-60.29,1600928364.09375
-50.33,1600928364.109375
-37.97,1600928364.125
-24.8,1600928364.140625
-12.34,1600928364.15625
-1.67,1600928364.171875
6.71,1600928364.1875
12.84,1600928364.203125
17.08,1600928364.21875
19.81,1600928364.234375
21.39,1600928364.25
22.03,1600928364.265625
21.98,1600928364.28125
21.5,1600928364.296875
20.96,1600928364.3125
20.69,1600928364.328125
20.92,1600928364.34375
21.66,1600928364.359375
22.7,1600928364.375
23.75,1600928364.390625
24.56,1600928364.40625
25.09,1600928364.421875
25.45,1600928364.4375
25.81,1600928364.453125
26.32,1600928364.46875
26.9,1600928364.484375
27.39,1600928364.5
27.53,1600928364.515625
27.14,1600928364.53125
26.2,1600928364.546875
24.83,1600928364.5625
23.25,1600928364.578125
21.65,1600928364.59375
20.15,1600928364.609375
18.76,1600928364.625
17.42,1600928364.640625
16.05,1600928364.65625
14.57,1600928364.671875
12.9,1600928364.6875
10.97,1600928364.703125
8.77,1600928364.71875
6.31,1600928364.734375
3.72,1600928364.75
1.15,1600928364.765625
-1.25,1600928364.78125
-3.4,1600928364.796875
-5.37,1600928364.8125
-7.29,1600928364.828125
-9.37,1600928364.84375
-11.7,1600928364.859375
-14.2,1600928364.875
-16.7,1600928364.890625
-19.04,1600928364.90625
-21.13,1600928364.921875
-23.07,1600928364.9375
-25.07,1600928364.953125
-27.32,1600928364.96875
-29.97,1600928364.984375
-33.11,1600928365.0
-36.8,1600928365.015625
-41.08,1600928365.03125
-45.81,1600928365.046875
-50.54,1600928365.0625
-54.43,1600928365.078125
-56.34,1600928365.09375
-55.23,1600928365.109375
-50.57,1600928365.125
-42.64,1600928365.140625
-32.48,1600928365.15625
-21.59,1600928365.171875
-11.4,1600928365.1875
-2.89,1600928365.203125
3.64,1600928365.21875
8.4,1600928365.234375
11.87,1600928365.25
14.55,1600928365.265625
16.72,1600928365.28125
18.53,1600928365.296875
20.01,1600928365.3125
21.19,1600928365.328125
22.09,1600928365.34375
22.77,1600928365.359375
23.27,1600928365.375
23.62,1600928365.390625
23.84,1600928365.40625
23.95,1600928365.421875
23.95,1600928365.4375
23.9,1600928365.453125
23.8,1600928365.46875
23.65,1600928365.484375
23.41,1600928365.5
23.03,1600928365.515625
22.5,1600928365.53125
21.81,1600928365.546875
21.0,1600928365.5625
20.09,1600928365.578125
19.09,1600928365.59375
18.0,1600928365.609375
16.79,1600928365.625
15.43,1600928365.640625
13.89,1600928365.65625
12.17,1600928365.671875
10.35,1600928365.6875
8.56,1600928365.703125
6.96,1600928365.71875
5.68,1600928365.734375
4.71,1600928365.75
3.9,1600928365.765625
3.02,1600928365.78125
1.86,1600928365.796875
0.35,1600928365.8125
-1.42,1600928365.828125
-3.24,1600928365.84375
-4.92,1600928365.859375
-6.39,1600928365.875
-7.72,1600928365.890625
-9.1,1600928365.90625
-10.76,1600928365.921875
-12.8,1600928365.9375
-15.19,1600928365.953125
-17.8,1600928365.96875
-20.36,1600928365.984375
-22.71,1600928366.0
-24.79,1600928366.015625
-26.69,1600928366.03125
-28.64,1600928366.046875
-30.9,1600928366.0625
-33.71,1600928366.078125
-37.17,1600928366.09375
-41.21,1600928366.109375
-45.5,1600928366.125
-49.45,1600928366.140625
-52.24,1600928366.15625
-52.99,1600928366.171875
-50.97,1600928366.1875
-45.9,1600928366.203125
-38.07,1600928366.21875
-28.4,1600928366.234375
-18.17,1600928366.25
-8.66,1600928366.265625
-0.79,1600928366.28125
5.1,1600928366.296875
9.19,1600928366.3125
11.96,1600928366.328125
13.96,1600928366.34375
15.58,1600928366.359375
17.01,1600928366.375
18.3,1600928366.390625
19.46,1600928366.40625
20.46,1600928366.421875
21.3,1600928366.4375
21.98,1600928366.453125
22.5,1600928366.46875
22.87,1600928366.484375
23.19,1600928366.5
23.57,1600928366.515625
24.12,1600928366.53125
24.84,1600928366.546875
25.65,1600928366.5625
26.39,1600928366.578125
26.9,1600928366.59375
27.11,1600928366.609375
27.01,1600928366.625
26.63,1600928366.640625
25.98,1600928366.65625
25.04,1600928366.671875
23.78,1600928366.6875
22.24,1600928366.703125
20.51,1600928366.71875
18.72,1600928366.734375
17.03,1600928366.75
15.52,1600928366.765625
14.18,1600928366.78125
12.87,1600928366.796875
11.45,1600928366.8125
9.81,1600928366.828125
7.97,1600928366.84375
6.06,1600928366.859375
4.27,1600928366.875
2.72,1600928366.890625
1.46,1600928366.90625
0.43,1600928366.921875
-0.47,1600928366.9375
-1.31,1600928366.953125
-2.18,1600928366.96875
-3.19,1600928366.984375
-4.5,1600928367.0
-6.33,1600928367.015625
-8.82,1600928367.03125
-11.93,1600928367.046875
-15.43,1600928367.0625
-18.97,1600928367.078125
-22.23,1600928367.09375
-25.1,1600928367.109375
-27.72,1600928367.125
-30.44,1600928367.140625
-33.64,1600928367.15625
-37.62,1600928367.171875
-42.38,1600928367.1875
-47.53,1600928367.203125
-52.28,1600928367.21875
-55.63,1600928367.234375
-56.56,1600928367.25
-54.38,1600928367.265625
-48.98,1600928367.28125
-40.88,1600928367.296875
-31.14,1600928367.3125
-21.01,1600928367.328125
-11.64,1600928367.34375
-3.8,1600928367.359375
2.22,1600928367.375
6.49,1600928367.390625
9.37,1600928367.40625
11.29,1600928367.421875
12.6,1600928367.4375
13.55,1600928367.453125
14.25,1600928367.46875
14.73,1600928367.484375
15.05,1600928367.5
15.26,1600928367.515625
15.47,1600928367.53125
15.7,1600928367.546875
15.91,1600928367.5625
16.0,1600928367.578125
15.92,1600928367.59375
15.7,1600928367.609375
15.51,1600928367.625
15.53,1600928367.640625
15.93,1600928367.65625
16.63,1600928367.671875
17.38,1600928367.6875
17.82,1600928367.703125
17.66,1600928367.71875
16.8,1600928367.734375
15.36,1600928367.75
13.65,1600928367.765625
12.0,1600928367.78125
10.6,1600928367.796875
9.49,1600928367.8125
8.57,1600928367.828125
7.72,1600928367.84375
6.79,1600928367.859375
5.7,1600928367.875
4.43,1600928367.890625
2.96,1600928367.90625
1.36,1600928367.921875
-0.24,1600928367.9375
-1.67,1600928367.953125
-2.78,1600928367.96875
-3.55,1600928367.984375
-4.1,1600928368.0
-4.68,1600928368.015625
-5.6,1600928368.03125
-7.06,1600928368.046875
-9.08,1600928368.0625
-11.47,1600928368.078125
-13.94,1600928368.09375
-16.23,1600928368.109375
-18.23,1600928368.125
-20.06,1600928368.140625
-22.03,1600928368.15625
-24.48,1600928368.171875
-27.71,1600928368.1875
-31.82,1600928368.203125
-36.64,1600928368.21875
-41.73,1600928368.234375
-46.39,1600928368.25
-49.74,1600928368.265625
-50.88,1600928368.28125
-49.11,1600928368.296875
-44.19,1600928368.3125
-36.51,1600928368.328125
-27.0,1600928368.34375
-16.97,1600928368.359375
-7.67,1600928368.375
0.03,1600928368.390625
5.8,1600928368.40625
9.75,1600928368.421875
12.24,1600928368.4375
13.65,1600928368.453125
14.26,1600928368.46875
14.31,1600928368.484375
14.0,1600928368.5
13.62,1600928368.515625
13.38,1600928368.53125
13.48,1600928368.546875
13.93,1600928368.5625
14.66,1600928368.578125
15.55,1600928368.59375
16.46,1600928368.609375
17.29,1600928368.625
17.91,1600928368.640625
18.25,1600928368.65625
18.19,1600928368.671875
17.74,1600928368.6875
16.96,1600928368.703125
15.98,1600928368.71875
14.95,1600928368.734375
13.96,1600928368.75
13.06,1600928368.765625
12.26,1600928368.78125
11.57,1600928368.796875
10.98,1600928368.8125
10.5,1600928368.828125
10.12,1600928368.84375
9.79,1600928368.859375
9.41,1600928368.875
8.82,1600928368.890625
7.85,1600928368.90625
6.36,1600928368.921875
4.35,1600928368.9375
1.99,1600928368.953125
-0.39,1600928368.96875
-2.45,1600928368.984375
-3.93,1600928369.0
-4.82,1600928369.015625
-5.36,1600928369.03125
-5.89,1600928369.046875
-6.74,1600928369.0625
-8.05,1600928369.078125
-9.75,1600928369.09375
-11.6,1600928369.109375
-13.38,1600928369.125
-14.98,1600928369.140625
-16.47,1600928369.15625
-18.1,1600928369.171875
-20.21,1600928369.1875
-23.05,1600928369.203125
-26.76,1600928369.21875
-31.19,1600928369.234375
-35.91,1600928369.25
-40.15,1600928369.265625
-42.96,1600928369.28125
-43.41,1600928369.296875
-40.83,1600928369.3125
-35.03,1600928369.328125
-26.46,1600928369.34375
-16.08,1600928369.359375
-5.11,1600928369.375
5.26,1600928369.390625
14.18,1600928369.40625
21.26,1600928369.421875
26.47,1600928369.4375
30.07,1600928369.453125
32.34,1600928369.46875
33.52,1600928369.484375
33.78,1600928369.5
33.3,1600928369.515625
32.28,1600928369.53125
30.92,1600928369.546875
29.43,1600928369.5625
27.98,1600928369.578125
26.64,1600928369.59375
25.44,1600928369.609375
24.43,1600928369.625
23.66,1600928369.640625
23.22,1600928369.65625
23.16,1600928369.671875
23.44,1600928369.6875
23.97,1600928369.703125
24.59,1600928369.71875
25.16,1600928369.734375
25.56,1600928369.75
25.7,1600928369.765625
25.45,1600928369.78125
24.66,1600928369.796875
23.26,1600928369.8125
21.25,1600928369.828125
18.85,1600928369.84375
16.39,1600928369.859375
14.19,1600928369.875
12.45,1600928369.890625
11.13,1600928369.90625
10.05,1600928369.921875
8.94,1600928369.9375
7.63,1600928369.953125
6.12,1600928369.96875
4.49,1600928369.984375
2.84,1600928370.0
1.19,1600928370.015625
-0.54,1600928370.03125
-2.44,1600928370.046875
-4.62,1600928370.0625
-7.07,1600928370.078125
-9.71,1600928370.09375
-12.41,1600928370.109375
-15.02,1600928370.125
-17.42,1600928370.140625
-19.56,1600928370.15625
-21.45,1600928370.171875
-23.19,1600928370.1875
-24.95,1600928370.203125
-26.96,1600928370.21875
-29.49,1600928370.234375
-32.73,1600928370.25
-36.63,1600928370.265625
-40.81,1600928370.28125
-44.57,1600928370.296875
-46.96,1600928370.3125
-47.13,1600928370.328125
-44.55,1600928370.34375
-39.27,1600928370.359375
-31.84,1600928370.375
-23.22,1600928370.390625
-14.39,1600928370.40625
-6.16,1600928370.421875
0.94,1600928370.4375
6.66,1600928370.453125
10.94,1600928370.46875
13.81,1600928370.484375
15.45,1600928370.5
16.11,1600928370.515625
16.16,1600928370.53125
16.01,1600928370.546875
15.93,1600928370.5625
16.01,1600928370.578125
16.2,1600928370.59375
16.34,1600928370.609375
16.4,1600928370.625
16.44,1600928370.640625
16.64,1600928370.65625
17.14,1600928370.671875
17.98,1600928370.6875
19.09,1600928370.703125
20.26,1600928370.71875
21.35,1600928370.734375
22.19,1600928370.75
22.72,1600928370.765625
22.84,1600928370.78125
22.48,1600928370.796875
21.57,1600928370.8125
20.16,1600928370.828125
18.4,1600928370.84375
16.49,1600928370.859375
14.64,1600928370.875
12.93,1600928370.890625
11.27,1600928370.90625
9.5,1600928370.921875
7.45,1600928370.9375
5.09,1600928370.953125
2.57,1600928370.96875
0.16,1600928370.984375
-1.89,1600928371.0
-3.5,1600928371.015625
-4.76,1600928371.03125
-5.92,1600928371.046875
-7.25,1600928371.0625
-8.95,1600928371.078125
-10.98,1600928371.09375
-13.18,1600928371.109375
-15.28,1600928371.125
-17.07,1600928371.140625
-18.51,1600928371.15625
-19.75,1600928371.171875
-21.11,1600928371.1875
-22.97,1600928371.203125
-25.65,1600928371.21875
-29.26,1600928371.234375
-33.62,1600928371.25
-38.25,1600928371.265625
-42.37,1600928371.28125
-45.08,1600928371.296875
-45.56,1600928371.3125
-43.3,1600928371.328125
-38.25,1600928371.34375
-30.81,1600928371.359375
-21.83,1600928371.375
-12.34,1600928371.390625
-3.33,1600928371.40625
4.45,1600928371.421875
10.61,1600928371.4375
15.13,1600928371.453125
18.25,1600928371.46875
20.33,1600928371.484375
21.72,1600928371.5
22.69,1600928371.515625
23.37,1600928371.53125
23.8,1600928371.546875
23.96,1600928371.5625
23.87,1600928371.578125
23.6,1600928371.59375
23.23,1600928371.609375
22.88,1600928371.625
22.61,1600928371.640625
22.47,1600928371.65625
22.47,1600928371.671875
22.62,1600928371.6875
22.94,1600928371.703125
23.44,1600928371.71875
24.05,1600928371.734375
24.62,1600928371.75
24.94,1600928371.765625
24.85,1600928371.78125
24.27,1600928371.796875
23.24,1600928371.8125
21.88,1600928371.828125
20.29,1600928371.84375
18.49,1600928371.859375
16.41,1600928371.875
13.94,1600928371.890625
11.1,1600928371.90625
8.06,1600928371.921875
5.09,1600928371.9375
2.54,1600928371.953125
0.57,1600928371.96875
-0.82,1600928371.984375
-1.87,1600928372.0
-2.9,1600928372.015625
-4.24,1600928372.03125
-6.03,1600928372.046875
-8.22,1600928372.0625
-10.49,1600928372.078125
-12.39,1600928372.09375
-13.54,1600928372.109375
-13.8,1600928372.125
-13.4,1600928372.140625
-12.95,1600928372.15625
-13.22,1600928372.171875
-14.88,1600928372.1875
-18.29,1600928372.203125
-23.27,1600928372.21875
-29.21,1600928372.234375
-35.13,1600928372.25
-39.94,1600928372.265625
-42.62,1600928372.28125
-42.47,1600928372.296875
-39.29,1600928372.3125
-33.47,1600928372.328125
-25.98,1600928372.34375
-18.11,1600928372.359375
-11.08,1600928372.375
-5.7,1600928372.390625
-2.21,1600928372.40625
-0.24,1600928372.421875
0.86,1600928372.4375
1.75,1600928372.453125
2.81,1600928372.46875
4.12,1600928372.484375
5.55,1600928372.5
6.95,1600928372.515625
8.31,1600928372.53125
9.73,1600928372.546875
11.34,1600928372.5625
13.14,1600928372.578125
14.98,1600928372.59375
16.62,1600928372.609375
17.88,1600928372.625
18.76,1600928372.640625
19.45,1600928372.65625
20.18,1600928372.671875
21.11,1600928372.6875
22.17,1600928372.703125
23.16,1600928372.71875
23.82,1600928372.734375
24.01,1600928372.75
23.75,1600928372.765625
23.17,1600928372.78125
22.44,1600928372.796875
21.65,1600928372.8125
20.85,1600928372.828125
19.97,1600928372.84375
18.95,1600928372.859375
17.69,1600928372.875
16.16,1600928372.890625
14.29,1600928372.90625
12.09,1600928372.921875
9.61,1600928372.9375
6.96,1600928372.953125
4.28,1600928372.96875
1.71,1600928372.984375
-0.75,1600928373.0
-3.14,1600928373.015625
-5.58,1600928373.03125
-8.12,1600928373.046875
-10.75,1600928373.0625
-13.32,1600928373.078125
-15.69,1600928373.09375
-17.77,1600928373.109375
-19.6,1600928373.125
-21.37,1600928373.140625
-23.4,1600928373.15625
-25.99,1600928373.171875
-29.33,1600928373.1875
-33.42,1600928373.203125
-37.91,1600928373.21875
-42.15,1600928373.234375
-45.22,1600928373.25
-46.13,1600928373.265625
-44.13,1600928373.28125
-38.96,1600928373.296875
-31.06,1600928373.3125
-21.43,1600928373.328125
-11.35,1600928373.34375
-1.97,1600928373.359375
5.92,1600928373.375
12.05,1600928373.390625
16.51,1600928373.40625
19.63,1600928373.421875
21.73,1600928373.4375
23.07,1600928373.453125
23.86,1600928373.46875
24.3,1600928373.484375
24.6,1600928373.5
24.93,1600928373.515625
25.41,1600928373.53125
26.02,1600928373.546875
26.65,1600928373.5625
27.14,1600928373.578125
27.41,1600928373.59375
27.45,1600928373.609375
27.37,1600928373.625
27.31,1600928373.640625
27.37,1600928373.65625
27.53,1600928373.671875
27.72,1600928373.6875
27.81,1600928373.703125
27.66,1600928373.71875
27.2,1600928373.734375
26.39,1600928373.75
25.23,1600928373.765625
23.73,1600928373.78125
21.95,1600928373.796875
19.91,1600928373.8125
17.71,1600928373.828125
15.45,1600928373.84375
13.21,1600928373.859375
11.03,1600928373.875
8.92,1600928373.890625
6.88,1600928373.90625
4.95,1600928373.921875
3.19,1600928373.9375
1.67,1600928373.953125
0.47,1600928373.96875
-0.45,1600928373.984375
-1.21,1600928374.0
-1.99,1600928374.015625
-2.96,1600928374.03125
-4.19,1600928374.046875
-5.63,1600928374.0625
-7.12,1600928374.078125
-8.5,1600928374.09375
-9.67,1600928374.109375
-10.71,1600928374.125
-11.8,1600928374.140625
-13.24,1600928374.15625
-15.32,1600928374.171875
-18.23,1600928374.1875
-21.91,1600928374.203125
-25.99,1600928374.21875
-29.79,1600928374.234375
-32.45,1600928374.25
-33.2,1600928374.265625
-31.66,1600928374.28125
-27.92,1600928374.296875
-22.59,1600928374.3125
-16.53,1600928374.328125
-10.58,1600928374.34375
-5.33,1600928374.359375
-1.01,1600928374.375
2.41,1600928374.390625
5.09,1600928374.40625
7.09,1600928374.421875
8.45,1600928374.4375
9.11,1600928374.453125
9.1,1600928374.46875
8.53,1600928374.484375
7.64,1600928374.5
6.72,1600928374.515625
6.05,1600928374.53125
5.82,1600928374.546875
6.08,1600928374.5625
6.75,1600928374.578125
7.66,1600928374.59375
8.64,1600928374.609375
9.55,1600928374.625
10.31,1600928374.640625
10.88,1600928374.65625
11.23,1600928374.671875
11.37,1600928374.6875
11.31,1600928374.703125
11.05,1600928374.71875
10.61,1600928374.734375
10.05,1600928374.75
9.42,1600928374.765625
8.79,1600928374.78125
8.29,1600928374.796875
7.95,1600928374.8125
7.82,1600928374.828125
7.8,1600928374.84375
7.75,1600928374.859375
7.48,1600928374.875
6.86,1600928374.890625
5.89,1600928374.90625
4.67,1600928374.921875
3.36,1600928374.9375
2.06,1600928374.953125
0.81,1600928374.96875
-0.46,1600928374.984375
-1.87,1600928375.0
-3.48,1600928375.015625
-5.32,1600928375.03125
-7.33,1600928375.046875
-9.47,1600928375.0625
-11.64,1600928375.078125
-13.79,1600928375.09375
-15.86,1600928375.109375
-17.82,1600928375.125
-19.7,1600928375.140625
-21.61,1600928375.15625
-23.78,1600928375.171875
-26.43,1600928375.1875
-29.68,1600928375.203125
-33.4,1600928375.21875
-37.14,1600928375.234375
-40.16,1600928375.25
-41.68,1600928375.265625
-41.08,1600928375.28125
-38.16,1600928375.296875
-33.22,1600928375.3125
-26.97,1600928375.328125
-20.3,1600928375.34375
-14.02,1600928375.359375
-8.65,1600928375.375
-4.36,1600928375.390625
-1.05,1600928375.40625
1.5,1600928375.421875
3.47,1600928375.4375
5.0,1600928375.453125
6.16,1600928375.46875
7.04,1600928375.484375
7.73,1600928375.5
8.29,1600928375.515625
8.76,1600928375.53125
9.17,1600928375.546875
9.53,1600928375.5625
9.91,1600928375.578125
10.39,1600928375.59375
11.09,1600928375.609375
12.01,1600928375.625
13.11,1600928375.640625
14.26,1600928375.65625
15.3,1600928375.671875
16.11,1600928375.6875
16.64,1600928375.703125
16.86,1600928375.71875
16.73,1600928375.734375
16.24,1600928375.75
15.37,1600928375.765625
14.17,1600928375.78125
12.76,1600928375.796875
11.33,1600928375.8125
10.06,1600928375.828125
9.03,1600928375.84375
8.23,1600928375.859375
7.52,1600928375.875
6.78,1600928375.890625
5.9,1600928375.90625
4.9,1600928375.921875
3.86,1600928375.9375
2.89,1600928375.953125
2.03,1600928375.96875
1.24,1600928375.984375
0.37,1600928376.0
-0.72,1600928376.015625
-2.09,1600928376.03125
-3.73,1600928376.046875
-5.53,1600928376.0625
-7.41,1600928376.078125
-9.31,1600928376.09375
-11.23,1600928376.109375
-13.18,1600928376.125
-15.13,1600928376.140625
-16.97,1600928376.15625
-18.55,1600928376.171875
-19.82,1600928376.1875
-20.91,1600928376.203125
-22.11,1600928376.21875
-23.85,1600928376.234375
-26.4,1600928376.25
-29.71,1600928376.265625
-33.32,1600928376.28125
-36.44,1600928376.296875
-38.24,1600928376.3125
-38.1,1600928376.328125
-35.86,1600928376.34375
-31.82,1600928376.359375
-26.58,1600928376.375
-20.81,1600928376.390625
-15.08,1600928376.40625
-9.77,1600928376.421875
-5.07,1600928376.4375
-1.07,1600928376.453125
2.21,1600928376.46875
4.81,1600928376.484375
6.84,1600928376.5
8.42,1600928376.515625
9.68,1600928376.53125
10.7,1600928376.546875
11.51,1600928376.5625
12.11,1600928376.578125
12.54,1600928376.59375
12.84,1600928376.609375
13.14,1600928376.625
13.51,1600928376.640625
13.98,1600928376.65625
14.51,1600928376.671875
14.98,1600928376.6875
15.32,1600928376.703125
15.48,1600928376.71875
15.49,1600928376.734375
15.38,1600928376.75
15.16,1600928376.765625
14.8,1600928376.78125
14.24,1600928376.796875
13.48,1600928376.8125
12.56,1600928376.828125
11.59,1600928376.84375
10.69,1600928376.859375
9.92,1600928376.875
9.26,1600928376.890625
8.66,1600928376.90625
8.05,1600928376.921875
7.43,1600928376.9375
6.79,1600928376.953125
6.13,1600928376.96875
5.43,1600928376.984375
4.6,1600928377.0
3.62,1600928377.015625
2.46,1600928377.03125
1.2,1600928377.046875
-0.08,1600928377.0625
-1.34,1600928377.078125
-2.57,1600928377.09375
-3.84,1600928377.109375
-5.2,1600928377.125
-6.74,1600928377.140625
-8.46,1600928377.15625
-10.33,1600928377.171875
-12.29,1600928377.1875
-14.24,1600928377.203125
-16.09,1600928377.21875
-17.74,1600928377.234375
-19.18,1600928377.25
-20.49,1600928377.265625
-21.88,1600928377.28125
-23.64,1600928377.296875
-26.05,1600928377.3125
-29.28,1600928377.328125
-33.19,1600928377.34375
-37.34,1600928377.359375
-41.03,1600928377.375
-43.44,1600928377.390625
-43.9,1600928377.40625
-42.02,1600928377.421875
-37.89,1600928377.4375
-31.99,1600928377.453125
-25.07,1600928377.46875
-17.94,1600928377.484375
-11.27,1600928377.5
-5.49,1600928377.515625
-0.8,1600928377.53125
2.84,1600928377.546875
5.6,1600928377.5625
7.71,1600928377.578125
9.44,1600928377.59375
11.02,1600928377.609375
12.55,1600928377.625
13.98,1600928377.640625
15.21,1600928377.65625
16.08,1600928377.671875
16.55,1600928377.6875
16.69,1600928377.703125
16.74,1600928377.71875
16.93,1600928377.734375
17.45,1600928377.75
18.33,1600928377.765625
19.47,1600928377.78125
20.65,1600928377.796875
21.64,1600928377.8125
22.28,1600928377.828125
22.47,1600928377.84375
22.24,1600928377.859375
21.65,1600928377.875
20.8,1600928377.890625
19.77,1600928377.90625
18.62,1600928377.921875
17.41,1600928377.9375
16.21,1600928377.953125
15.08,1600928377.96875
14.05,1600928377.984375
13.11,1600928378.0
12.17,1600928378.015625
11.14,1600928378.03125
9.96,1600928378.046875
8.69,1600928378.0625
7.41,1600928378.078125
6.21,1600928378.09375
5.1,1600928378.109375
3.97,1600928378.125
2.72,1600928378.140625
1.3,1600928378.15625
-0.19,1600928378.171875
-1.58,1600928378.1875
-2.74,1600928378.203125
-3.65,1600928378.21875
-4.42,1600928378.234375
-5.29,1600928378.25
-6.46,1600928378.265625
-8.0,1600928378.28125
-9.89,1600928378.296875
-12.03,1600928378.3125
-14.26,1600928378.328125
-16.5,1600928378.34375
-18.71,1600928378.359375
-20.94,1600928378.375
-23.33,1600928378.390625
-26.07,1600928378.40625
-29.39,1600928378.421875
-33.41,1600928378.4375
-38.01,1600928378.453125
-42.76,1600928378.46875
-46.9,1600928378.484375
-49.53,1600928378.5
-49.81,1600928378.515625
-47.31,1600928378.53125
-42.14,1600928378.546875
-34.97,1600928378.5625
-26.78,1600928378.578125
-18.59,1600928378.59375
-11.18,1600928378.609375
-4.92,1600928378.625
0.16,1600928378.640625
4.21,1600928378.65625
7.45,1600928378.671875
10.05,1600928378.6875
12.16,1600928378.703125
13.84,1600928378.71875
15.23,1600928378.734375
16.39,1600928378.75
17.36,1600928378.765625
18.18,1600928378.78125
18.85,1600928378.796875
19.37,1600928378.8125
19.83,1600928378.828125
20.3,1600928378.84375
20.88,1600928378.859375
21.63,1600928378.875
22.54,1600928378.890625
23.57,1600928378.90625
24.65,1600928378.921875
25.69,1600928378.9375
26.54,1600928378.953125
27.08,1600928378.96875
27.15,1600928378.984375
26.66,1600928379.0
25.6,1600928379.015625
24.1,1600928379.03125
22.39,1600928379.046875
20.73,1600928379.0625
19.3,1600928379.078125
18.12,1600928379.09375
17.02,1600928379.109375
15.78,1600928379.125
14.24,1600928379.140625
12.43,1600928379.15625
10.52,1600928379.171875
8.8,1600928379.1875
7.39,1600928379.203125
6.24,1600928379.21875
5.17,1600928379.234375
3.99,1600928379.25
2.62,1600928379.265625
1.18,1600928379.28125
-0.15,1600928379.296875
-1.21,1600928379.3125
-2.04,1600928379.328125
-2.86,1600928379.34375
-3.95,1600928379.359375
-5.49,1600928379.375
-7.53,1600928379.390625
-9.93,1600928379.40625
-12.49,1600928379.421875
-15.04,1600928379.4375
-17.48,1600928379.453125
-19.81,1600928379.46875
-22.08,1600928379.484375
-24.37,1600928379.5
-26.81,1600928379.515625
-29.6,1600928379.53125
-33.0,1600928379.546875
-37.12,1600928379.5625
-41.81,1600928379.578125
-46.52,1600928379.59375
-50.28,1600928379.609375
-52.05,1600928379.625
-51.0,1600928379.640625
-46.86,1600928379.65625
-40.0,1600928379.671875
-31.31,1600928379.6875
-21.84,1600928379.703125
-12.51,1600928379.71875
