PPG GREEN,time
2075340.0,1600928302.171
2074738.0,1600928302.211
2074310.0,1600928302.253
2074089.0,1600928302.291
2074403.0,1600928302.331
2075556.0,1600928302.372
2076865.0,1600928302.411
2078420.0,1600928302.453
2080148.0,1600928302.493
2081821.0,1600928302.532
2083740.0,1600928302.572
2085629.0,1600928302.613
2088147.0,1600928302.653
2090487.0,1600928302.692
2091474.0,1600928302.733
2087978.0,1600928302.773
2080603.0,1600928302.813
2072667.0,1600928302.855
2065542.0,1600928302.893
2060222.0,1600928302.933
2055224.0,1600928302.974
2051449.0,1600928303.013
2048773.0,1600928303.054
2045339.0,1600928303.094
2042451.0,1600928303.134
2040651.0,1600928303.174
2041027.0,1600928303.215
2041420.0,1600928303.255
2043391.0,1600928303.294
2045703.0,1600928303.335
2048450.0,1600928303.374
2050599.0,1600928303.415
2053145.0,1600928303.457
2055823.0,1600928303.495
2059210.0,1600928303.535
2065067.0,1600928303.576
2070667.0,1600928303.615
2075449.0,1600928303.656
2079674.0,1600928303.696
2082659.0,1600928303.736
2082249.0,1600928303.776
2078786.0,1600928303.817
2075649.0,1600928303.857
2071358.0,1600928303.896
2067200.0,1600928303.937
2064880.0,1600928303.976
2063155.0,1600928304.016
2062659.0,1600928304.058
2062184.0,1600928304.097
2061720.0,1600928304.137
2059894.0,1600928304.178
2058881.0,1600928304.217
2058540.0,1600928304.258
2058968.0,1600928304.298
2059348.0,1600928304.337
2060342.0,1600928304.377
2061930.0,1600928304.418
2064084.0,1600928304.458
2066066.0,1600928304.497
2068011.0,1600928304.538
2069969.0,1600928304.577
2072593.0,1600928304.617
2074670.0,1600928304.66
2077158.0,1600928304.698
2079426.0,1600928304.738
2080772.0,1600928304.779
2082253.0,1600928304.818
2083785.0,1600928304.859
2085730.0,1600928304.899
2088344.0,1600928304.938
2093056.0,1600928305.019
2090718.0,1600928304.978
2094691.0,1600928305.059
2096129.0,1600928305.098
2098246.0,1600928305.139
2101092.0,1600928305.178
2103321.0,1600928305.219
2105952.0,1600928305.261
2108484.0,1600928305.299
2111501.0,1600928305.339
2115012.0,1600928305.38
2117554.0,1600928305.419
2120460.0,1600928305.46
2123681.0,1600928305.5
2128538.0,1600928305.539
2133731.0,1600928305.579
2136214.0,1600928305.62
2137987.0,1600928305.66
2138269.0,1600928305.7
2134265.0,1600928305.741
2128158.0,1600928305.78
2120673.0,1600928305.82
2114124.0,1600928305.862
2108549.0,1600928305.9
2103196.0,1600928305.94
2099040.0,1600928305.981
2094880.0,1600928306.02
2089908.0,1600928306.061
2085574.0,1600928306.101
2081858.0,1600928306.141
2078613.0,1600928306.181
2076546.0,1600928306.222
2074421.0,1600928306.262
2072810.0,1600928306.301
2071219.0,1600928306.342
2069309.0,1600928306.381
2068113.0,1600928306.421
2067358.0,1600928306.463
2067768.0,1600928306.501
2068833.0,1600928306.541
2070288.0,1600928306.582
2071920.0,1600928306.622
2072953.0,1600928306.663
2068223.0,1600928306.703
2059066.0,1600928306.742
2049738.0,1600928306.782
2042520.0,1600928306.823
2036877.0,1600928306.863
2033089.0,1600928306.902
2029951.0,1600928306.943
2027231.0,1600928306.982
2023117.0,1600928307.023
2019066.0,1600928307.065
2015879.0,1600928307.103
2013216.0,1600928307.143
2012108.0,1600928307.184
2011272.0,1600928307.223
2010828.0,1600928307.264
2011097.0,1600928307.304
2010804.0,1600928307.343
2010707.0,1600928307.383
2011412.0,1600928307.425
2011995.0,1600928307.465
2013556.0,1600928307.504
2014303.0,1600928307.545
2015411.0,1600928307.584
2017289.0,1600928307.624
2017414.0,1600928307.666
2011391.0,1600928307.704
2000741.0,1600928307.744
1986423.0,1600928307.785
1973815.0,1600928307.824
1964529.0,1600928307.866
1957829.0,1600928307.906
1954183.0,1600928307.945
1951032.0,1600928307.985
1947444.0,1600928308.026
1943828.0,1600928308.066
1941017.0,1600928308.105
1938804.0,1600928308.146
1937818.0,1600928308.185
1938783.0,1600928308.225
1940349.0,1600928308.267
1943399.0,1600928308.306
1945879.0,1600928308.346
1946574.0,1600928308.387
1947444.0,1600928308.426
1947760.0,1600928308.467
1948680.0,1600928308.507
1949375.0,1600928308.546
1949465.0,1600928308.586
1946214.0,1600928308.627
1937289.0,1600928308.667
1926015.0,1600928308.706
1917679.0,1600928308.748
1912543.0,1600928308.787
1908236.0,1600928308.827
1905599.0,1600928308.869
1903783.0,1600928308.907
1902432.0,1600928308.947
1901101.0,1600928308.988
1900536.0,1600928309.027
1900860.0,1600928309.068
1901846.0,1600928309.109
1903329.0,1600928309.148
1905140.0,1600928309.188
1906934.0,1600928309.229
1908898.0,1600928309.27
1910666.0,1600928309.308
1912632.0,1600928309.349
1914627.0,1600928309.388
1916527.0,1600928309.428
1919008.0,1600928309.47
1922051.0,1600928309.509
1923715.0,1600928309.549
1920241.0,1600928309.59
1914805.0,1600928309.629
1910949.0,1600928309.67
1908922.0,1600928309.71
1908051.0,1600928309.749
1907596.0,1600928309.789
1908553.0,1600928309.831
1909462.0,1600928309.87
1910602.0,1600928309.91
1911778.0,1600928309.951
1912980.0,1600928309.99
1914946.0,1600928310.03
1917233.0,1600928310.072
1919849.0,1600928310.11
1922650.0,1600928310.15
1925485.0,1600928310.192
1928358.0,1600928310.231
1931637.0,1600928310.271
1934808.0,1600928310.312
1938092.0,1600928310.351
1945270.0,1600928310.432
1941519.0,1600928310.391
1949028.0,1600928310.472
1951652.0,1600928310.511
1950532.0,1600928310.553
1948116.0,1600928310.592
1946606.0,1600928310.632
1946328.0,1600928310.674
1946779.0,1600928310.712
1947334.0,1600928310.752
1948980.0,1600928310.793
1950815.0,1600928310.832
1952285.0,1600928310.873
1954417.0,1600928310.913
1956524.0,1600928310.948
1959363.0,1600928310.983
1965472.0,1600928311.062
1968725.0,1600928311.101
1962319.0,1600928311.022
1975895.0,1600928311.181
1979572.0,1600928311.222
1972342.0,1600928311.142
1982824.0,1600928311.264
1986754.0,1600928311.302
1990423.0,1600928311.342
1993999.0,1600928311.384
1998136.0,1600928311.421
2001724.0,1600928311.461
2003630.0,1600928311.502
2003483.0,1600928311.541
2002811.0,1600928311.581
2004615.0,1600928311.662
2003218.0,1600928311.622
2005888.0,1600928311.702
2007967.0,1600928311.743
2009980.0,1600928311.782
2011641.0,1600928311.823
2013313.0,1600928311.865
2014749.0,1600928311.901
2022171.0,1600928312.022
2024721.0,1600928312.063
2027547.0,1600928312.103
2019716.0,1600928311.982
2017190.0,1600928311.941
2030334.0,1600928312.142
2033207.0,1600928312.183
2036051.0,1600928312.224
2039211.0,1600928312.264
2042024.0,1600928312.301
2045337.0,1600928312.342
2048343.0,1600928312.382
2051200.0,1600928312.422
2054385.0,1600928312.464
2056292.0,1600928312.502
2056096.0,1600928312.542
2054827.0,1600928312.584
2054194.0,1600928312.664
2053911.0,1600928312.702
2054107.0,1600928312.623
2054256.0,1600928312.782
2054157.0,1600928312.741
2053188.0,1600928312.823
2051557.0,1600928312.863
2050118.0,1600928312.902
2049563.0,1600928312.944
2049131.0,1600928312.987
2049968.0,1600928313.027
2053084.0,1600928313.107
2051617.0,1600928313.068
2055844.0,1600928313.147
2058297.0,1600928313.188
2061668.0,1600928313.227
2065876.0,1600928313.268
2070944.0,1600928313.308
2083412.0,1600928313.387
2092778.0,1600928313.468
2094899.0,1600928313.508
2094739.0,1600928313.549
2088531.0,1600928313.429
2093319.0,1600928313.588
2092247.0,1600928313.627
2091981.0,1600928313.668
2091983.0,1600928313.707
2092525.0,1600928313.747
2093487.0,1600928313.789
2077173.0,1600928313.347
2094017.0,1600928313.828
2093900.0,1600928313.869
2094302.0,1600928313.909
2095381.0,1600928313.987
2094688.0,1600928313.949
2096529.0,1600928314.028
2097461.0,1600928314.067
2098985.0,1600928314.107
2100925.0,1600928314.148
2103544.0,1600928314.228
2105140.0,1600928314.271
2106498.0,1600928314.308
2102192.0,1600928314.187
2108057.0,1600928314.348
2111211.0,1600928314.468
2109518.0,1600928314.39
2107824.0,1600928314.508
2102848.0,1600928314.547
2110978.0,1600928314.429
2097957.0,1600928314.588
2094313.0,1600928314.629
2090937.0,1600928314.669
2085897.0,1600928314.75
2084052.0,1600928314.789
2082074.0,1600928314.827
2079693.0,1600928314.869
2088148.0,1600928314.708
2077745.0,1600928314.907
2076526.0,1600928314.948
2075595.0,1600928314.989
2075336.0,1600928315.028
2075279.0,1600928315.069
2075366.0,1600928315.11
2075514.0,1600928315.149
2075880.0,1600928315.187
2076708.0,1600928315.228
2078212.0,1600928315.349
2078792.0,1600928315.388
2078669.0,1600928315.428
2077659.0,1600928315.308
2076999.0,1600928315.268
2073517.0,1600928315.47
2059070.0,1600928315.549
2066073.0,1600928315.509
2053636.0,1600928315.588
2049529.0,1600928315.627
2045562.0,1600928315.668
2042906.0,1600928315.709
2040575.0,1600928315.748
2037805.0,1600928315.789
2035082.0,1600928315.83
2032832.0,1600928315.87
2031245.0,1600928315.907
2030542.0,1600928315.949
2029568.0,1600928316.028
2029606.0,1600928315.988
2029123.0,1600928316.07
2029139.0,1600928316.108
2028933.0,1600928316.19
2029037.0,1600928316.149
2029402.0,1600928316.229
2029378.0,1600928316.27
2030069.0,1600928316.309
2030877.0,1600928316.348
2031837.0,1600928316.388
2030608.0,1600928316.429
2024349.0,1600928316.469
2016347.0,1600928316.509
2010311.0,1600928316.55
2006228.0,1600928316.587
2003039.0,1600928316.627
2000465.0,1600928316.668
1998530.0,1600928316.708
1996760.0,1600928316.748
1994833.0,1600928316.789
1992597.0,1600928316.828
1991598.0,1600928316.869
1991314.0,1600928316.909
1991415.0,1600928316.949
1992014.0,1600928316.989
1992460.0,1600928317.03
1993193.0,1600928317.07
1993897.0,1600928317.11
1994480.0,1600928317.151
1994523.0,1600928317.188
1995285.0,1600928317.228
1996412.0,1600928317.27
1997666.0,1600928317.309
1999211.0,1600928317.349
1997677.0,1600928317.429
1992311.0,1600928317.47
1987128.0,1600928317.511
2000173.0,1600928317.39
1983777.0,1600928317.55
1981630.0,1600928317.588
1980096.0,1600928317.629
1979281.0,1600928317.669
1978635.0,1600928317.709
1977970.0,1600928317.75
1977481.0,1600928317.789
1977357.0,1600928317.83
1978153.0,1600928317.871
1979124.0,1600928317.91
1980558.0,1600928317.948
1982072.0,1600928317.989
1983893.0,1600928318.029
1985970.0,1600928318.07
1987906.0,1600928318.11
1990302.0,1600928318.149
1992789.0,1600928318.19
1995454.0,1600928318.231
1998230.0,1600928318.271
2000822.0,1600928318.31
2000163.0,1600928318.349
1998027.0,1600928318.388
1995737.0,1600928318.429
1995033.0,1600928318.471
1994516.0,1600928318.509
1995283.0,1600928318.549
1996644.0,1600928318.591
1998573.0,1600928318.671
1999609.0,1600928318.709
2002672.0,1600928318.789
2001015.0,1600928318.749
2004572.0,1600928318.83
1997949.0,1600928318.63
2006922.0,1600928318.87
2009179.0,1600928318.909
2011531.0,1600928318.951
2014117.0,1600928318.99
2016478.0,1600928319.03
2018765.0,1600928319.072
2021449.0,1600928319.11
2024189.0,1600928319.15
2026663.0,1600928319.19
2028047.0,1600928319.229
2024053.0,1600928319.31
2026232.0,1600928319.27
2022246.0,1600928319.39
2022507.0,1600928319.349
2022692.0,1600928319.431
2023426.0,1600928319.471
2024570.0,1600928319.51
2025475.0,1600928319.551
2026052.0,1600928319.591
2028403.0,1600928319.671
2029688.0,1600928319.709
2026861.0,1600928319.629
2031434.0,1600928319.749
2033120.0,1600928319.791
2035042.0,1600928319.83
2039355.0,1600928319.911
2041483.0,1600928319.951
2043506.0,1600928319.991
2045875.0,1600928320.03
2037109.0,1600928319.871
2051880.0,1600928320.109
2054526.0,1600928320.15
2054814.0,1600928320.19
2054052.0,1600928320.23
2053764.0,1600928320.272
2054375.0,1600928320.31
2054900.0,1600928320.35
2055861.0,1600928320.392
2057093.0,1600928320.431
2048649.0,1600928320.07
2058215.0,1600928320.47
2058868.0,1600928320.51
2059488.0,1600928320.549
2060077.0,1600928320.59
2061471.0,1600928320.631
2062736.0,1600928320.671
2064342.0,1600928320.71
2066004.0,1600928320.752
2067738.0,1600928320.791
2069508.0,1600928320.831
2071481.0,1600928320.871
2073289.0,1600928320.909
2075350.0,1600928320.95
2082995.0,1600928321.071
2085864.0,1600928321.111
2077290.0,1600928320.991
2079963.0,1600928321.03
2079916.0,1600928321.232
2085320.0,1600928321.151
2078421.0,1600928321.272
2082543.0,1600928321.191
2077929.0,1600928321.309
2077605.0,1600928321.351
2077826.0,1600928321.39
2078474.0,1600928321.43
2078495.0,1600928321.472
2078312.0,1600928321.51
2078295.0,1600928321.551
2078930.0,1600928321.592
2079882.0,1600928321.631
2081048.0,1600928321.672
2083245.0,1600928321.749
2085797.0,1600928321.831
2088265.0,1600928321.91
2084631.0,1600928321.79
2089334.0,1600928321.952
2090770.0,1600928321.991
2092261.0,1600928322.031
2093956.0,1600928322.073
2081913.0,1600928321.712
2087070.0,1600928321.871
2093371.0,1600928322.111
2088892.0,1600928322.152
2083541.0,1600928322.191
2078633.0,1600928322.23
2075989.0,1600928322.271
2074382.0,1600928322.311
2073426.0,1600928322.35
2072910.0,1600928322.391
2072451.0,1600928322.432
2071243.0,1600928322.472
2070113.0,1600928322.511
2069601.0,1600928322.553
2069802.0,1600928322.592
2070177.0,1600928322.63
2070514.0,1600928322.672
2071107.0,1600928322.71
2072363.0,1600928322.751
2074115.0,1600928322.792
2076132.0,1600928322.831
2078140.0,1600928322.872
2080732.0,1600928322.912
2083260.0,1600928322.952
2085958.0,1600928322.992
2088424.0,1600928323.031
2090623.0,1600928323.071
2088204.0,1600928323.111
2081997.0,1600928323.152
2075182.0,1600928323.191
2070391.0,1600928323.231
2066805.0,1600928323.273
2064042.0,1600928323.312
2062987.0,1600928323.352
2061507.0,1600928323.393
2060200.0,1600928323.43
2058612.0,1600928323.471
2057229.0,1600928323.512
2056442.0,1600928323.551
2056424.0,1600928323.591
2056906.0,1600928323.632
2058093.0,1600928323.672
2059867.0,1600928323.712
2061438.0,1600928323.753
2063091.0,1600928323.79
2063977.0,1600928323.831
2063841.0,1600928323.872
2064204.0,1600928323.911
2065086.0,1600928323.951
2066175.0,1600928323.993
2067093.0,1600928324.032
2064577.0,1600928324.073
2055709.0,1600928324.113
2045109.0,1600928324.152
2036305.0,1600928324.19
2030389.0,1600928324.232
2026291.0,1600928324.272
2023944.0,1600928324.311
2021892.0,1600928324.352
2019617.0,1600928324.391
2016410.0,1600928324.432
2013700.0,1600928324.474
2012097.0,1600928324.512
2011767.0,1600928324.552
2011681.0,1600928324.594
2012242.0,1600928324.631
2013367.0,1600928324.672
2014805.0,1600928324.712
2016252.0,1600928324.752
2017311.0,1600928324.792
2018616.0,1600928324.833
2020110.0,1600928324.873
2022036.0,1600928324.913
2024080.0,1600928324.954
2016665.0,1600928333.673
2018706.0,1600928333.714
2020373.0,1600928333.753
2021905.0,1600928333.794
2023441.0,1600928333.833
2025630.0,1600928333.873
2027805.0,1600928333.912
2029004.0,1600928333.954
2025533.0,1600928333.993
2019303.0,1600928334.033
2013608.0,1600928334.075
2010394.0,1600928334.113
2008341.0,1600928334.154
2007161.0,1600928334.193
2006606.0,1600928334.232
2006357.0,1600928334.273
2005162.0,1600928334.314
2004422.0,1600928334.353
2004025.0,1600928334.393
2004276.0,1600928334.434
2005024.0,1600928334.477
2006069.0,1600928334.511
2007336.0,1600928334.554
2008754.0,1600928334.592
2010181.0,1600928334.632
2012075.0,1600928334.674
2013969.0,1600928334.713
2015783.0,1600928334.753
2017451.0,1600928334.794
2019559.0,1600928334.833
2021859.0,1600928334.874
2024294.0,1600928334.915
2026632.0,1600928334.954
2025847.0,1600928334.992
2020622.0,1600928335.033
2015385.0,1600928335.073
2011840.0,1600928335.113
2010235.0,1600928335.154
2009290.0,1600928335.193
2008408.0,1600928335.234
2008290.0,1600928335.276
2007770.0,1600928335.314
2007091.0,1600928335.347
2006901.0,1600928335.388
2007444.0,1600928335.427
2008622.0,1600928335.468
2009961.0,1600928335.508
2011378.0,1600928335.547
2013134.0,1600928335.587
2015025.0,1600928335.629
2016875.0,1600928335.668
2019007.0,1600928335.708
2020976.0,1600928335.749
2023107.0,1600928335.788
2024981.0,1600928335.828
2027449.0,1600928335.87
2029796.0,1600928335.908
2032308.0,1600928335.948
2034932.0,1600928335.989
2035359.0,1600928336.028
2031649.0,1600928336.069
2027231.0,1600928336.11
2023753.0,1600928336.149
2022016.0,1600928336.189
2020587.0,1600928336.23
2020033.0,1600928336.27
2019732.0,1600928336.309
2019618.0,1600928336.35
2019227.0,1600928336.389
2018825.0,1600928336.429
2019369.0,1600928336.51
2018929.0,1600928336.471
2020278.0,1600928336.55
2021584.0,1600928336.591
2024576.0,1600928336.671
2023089.0,1600928336.63
2026114.0,1600928336.712
2028134.0,1600928336.751
2031364.0,1600928336.834
2033469.0,1600928336.874
2035121.0,1600928336.913
2037238.0,1600928336.954
2029565.0,1600928336.792
2039775.0,1600928336.993
2042053.0,1600928337.032
2044077.0,1600928337.071
2044310.0,1600928337.11
2040061.0,1600928337.149
2030730.0,1600928337.227
2028612.0,1600928337.266
2027525.0,1600928337.305
2026733.0,1600928337.344
2026388.0,1600928337.383
2034864.0,1600928337.188
2025405.0,1600928337.422
2024532.0,1600928337.461
2023226.0,1600928337.539
2023450.0,1600928337.5
2023020.0,1600928337.578
2023620.0,1600928337.617
2026980.0,1600928337.734
2025793.0,1600928337.695
2024956.0,1600928337.656
2028242.0,1600928337.773
2029455.0,1600928337.812
2031009.0,1600928337.851
2032418.0,1600928337.89
2034133.0,1600928337.929
2035490.0,1600928337.968
2037318.0,1600928338.007
2039206.0,1600928338.046
2041061.0,1600928338.085
2042832.0,1600928338.124
2029072.0,1600928338.241
2041274.0,1600928338.163
2021738.0,1600928338.319
2020000.0,1600928338.358
2019146.0,1600928338.397
2018594.0,1600928338.436
2017512.0,1600928338.475
2015960.0,1600928338.514
2014991.0,1600928338.553
2014233.0,1600928338.592
2024323.0,1600928338.28
2014844.0,1600928338.67
2016748.0,1600928338.748
2017926.0,1600928338.787
2014371.0,1600928338.631
2015463.0,1600928338.709
2035336.0,1600928338.202
2019086.0,1600928338.827
2020427.0,1600928338.867
2021847.0,1600928338.907
2023304.0,1600928338.947
2025133.0,1600928338.987
2026901.0,1600928339.027
2028773.0,1600928339.067
2030976.0,1600928339.107
2033065.0,1600928339.147
2032296.0,1600928339.187
2026091.0,1600928339.227
2013196.0,1600928339.307
2009949.0,1600928339.347
2007882.0,1600928339.387
2018908.0,1600928339.267
2006779.0,1600928339.427
2006672.0,1600928339.467
2006075.0,1600928339.507
2004524.0,1600928339.547
2003040.0,1600928339.587
2002623.0,1600928339.627
2002880.0,1600928339.667
2003625.0,1600928339.707
2004517.0,1600928339.747
2005844.0,1600928339.787
2007258.0,1600928339.827
2008937.0,1600928339.867
2010534.0,1600928339.907
2012173.0,1600928339.947
2014286.0,1600928339.987
2016091.0,1600928340.027
2018257.0,1600928340.067
2020332.0,1600928340.107
2022614.0,1600928340.147
2025083.0,1600928340.187
2023952.0,1600928340.227
2016619.0,1600928340.267
2008344.0,1600928340.307
2002849.0,1600928340.347
1999369.0,1600928340.387
1997394.0,1600928340.427
1996736.0,1600928340.467
1996234.0,1600928340.507
1995453.0,1600928340.547
1994087.0,1600928340.587
1993142.0,1600928340.627
1992657.0,1600928340.667
1993023.0,1600928340.707
1993476.0,1600928340.747
1994758.0,1600928340.787
1996021.0,1600928340.827
1997826.0,1600928340.867
1999495.0,1600928340.907
2001333.0,1600928340.947
2003012.0,1600928340.987
2004956.0,1600928341.027
2006866.0,1600928341.067
2009085.0,1600928341.107
2011487.0,1600928341.147
2013676.0,1600928341.187
2015805.0,1600928341.227
2012118.0,1600928341.267
2003647.0,1600928341.307
1996010.0,1600928341.347
1991393.0,1600928341.387
1989142.0,1600928341.427
1987708.0,1600928341.467
1987212.0,1600928341.507
1986767.0,1600928341.547
1985678.0,1600928341.587
1984278.0,1600928341.627
1983110.0,1600928341.667
1982932.0,1600928341.707
1983027.0,1600928341.747
1983814.0,1600928341.787
1984907.0,1600928341.827
1986444.0,1600928341.867
1987956.0,1600928341.907
1989767.0,1600928341.947
1991306.0,1600928341.987
1993147.0,1600928342.027
1994860.0,1600928342.067
1996777.0,1600928342.107
1998815.0,1600928342.147
2001069.0,1600928342.187
2003219.0,1600928342.227
2003000.0,1600928342.267
1995730.0,1600928342.307
1986778.0,1600928342.347
1980319.0,1600928342.387
1976609.0,1600928342.427
1974650.0,1600928342.467
1973571.0,1600928342.507
1973199.0,1600928342.547
1971806.0,1600928342.587
1970008.0,1600928342.627
1968137.0,1600928342.667
1967201.0,1600928342.707
1966664.0,1600928342.747
1967060.0,1600928342.787
1967733.0,1600928342.827
1968868.0,1600928342.867
1970178.0,1600928342.907
1971478.0,1600928342.947
1972803.0,1600928342.987
1973803.0,1600928343.027
1975664.0,1600928343.067
1977305.0,1600928343.107
1979302.0,1600928343.147
1981266.0,1600928343.187
1983464.0,1600928343.227
1983107.0,1600928343.267
1975920.0,1600928343.307
1967106.0,1600928343.347
1960963.0,1600928343.387
1957035.0,1600928343.427
1954634.0,1600928343.467
1953665.0,1600928343.507
1953032.0,1600928343.547
1952026.0,1600928343.587
1950078.0,1600928343.627
1948262.0,1600928343.667
1947409.0,1600928343.707
1947675.0,1600928343.747
1948244.0,1600928343.787
1949644.0,1600928343.827
1950995.0,1600928343.867
1952603.0,1600928343.907
1954396.0,1600928343.947
1956074.0,1600928343.987
1958073.0,1600928344.027
1960241.0,1600928344.067
1962152.0,1600928344.107
1964701.0,1600928344.147
1967061.0,1600928344.187
1969701.0,1600928344.227
1969368.0,1600928344.267
1962165.0,1600928344.307
1948251.0,1600928344.387
1953918.0,1600928344.347
1942947.0,1600928344.467
1945186.0,1600928344.427
1941804.0,1600928344.507
1941224.0,1600928344.547
1940369.0,1600928344.587
1939065.0,1600928344.627
1937999.0,1600928344.667
1937843.0,1600928344.707
1938300.0,1600928344.747
1939364.0,1600928344.787
1940694.0,1600928344.827
1942340.0,1600928344.867
1944338.0,1600928344.907
1946269.0,1600928344.947
1950190.0,1600928345.027
1948269.0,1600928344.987
1952545.0,1600928345.067
1954869.0,1600928345.107
1957336.0,1600928345.147
1960228.0,1600928345.187
1963059.0,1600928345.227
1965125.0,1600928345.267
1960314.0,1600928345.307
1952617.0,1600928345.347
1947011.0,1600928345.387
1943491.0,1600928345.427
1941546.0,1600928345.467
1940198.0,1600928345.507
1939891.0,1600928345.547
1939388.0,1600928345.587
1938428.0,1600928345.627
1937603.0,1600928345.667
1937442.0,1600928345.707
1938047.0,1600928345.747
1939209.0,1600928345.787
1940793.0,1600928345.827
1942637.0,1600928345.867
1944594.0,1600928345.907
1946466.0,1600928345.947
1948391.0,1600928345.987
1950638.0,1600928346.027
1953149.0,1600928346.067
1955630.0,1600928346.107
1958101.0,1600928346.147
1960928.0,1600928346.187
1963867.0,1600928346.227
1966864.0,1600928346.267
1969025.0,1600928346.307
1965283.0,1600928346.347
1959051.0,1600928346.387
1953915.0,1600928346.427
1951249.0,1600928346.467
1949935.0,1600928346.507
1949014.0,1600928346.547
1949042.0,1600928346.587
1948962.0,1600928346.627
1948393.0,1600928346.667
1948756.0,1600928346.747
1948521.0,1600928346.707
1950855.0,1600928346.827
1949759.0,1600928346.787
1952668.0,1600928346.867
1954858.0,1600928346.907
1956704.0,1600928346.947
1959091.0,1600928346.987
1961334.0,1600928347.027
1966175.0,1600928347.107
1969088.0,1600928347.147
1963776.0,1600928347.067
1971726.0,1600928347.187
1974944.0,1600928347.227
1977838.0,1600928347.267
1981305.0,1600928347.307
1984242.0,1600928347.347
1986740.0,1600928347.387
1984407.0,1600928347.427
1979709.0,1600928347.467
1976384.0,1600928347.507
1975050.0,1600928347.547
1974927.0,1600928347.587
1975306.0,1600928347.627
1976199.0,1600928347.667
1977008.0,1600928347.707
1977419.0,1600928347.747
1977878.0,1600928347.787
1978665.0,1600928347.827
1980303.0,1600928347.867
1982382.0,1600928347.907
1984468.0,1600928347.947
1986973.0,1600928347.987
1989510.0,1600928348.027
1991782.0,1600928348.067
1994398.0,1600928348.107
1996805.0,1600928348.147
1999507.0,1600928348.187
2002495.0,1600928348.227
2005235.0,1600928348.267
2008347.0,1600928348.307
2011361.0,1600928348.347
2014137.0,1600928348.387
2017364.0,1600928348.427
2019316.0,1600928348.467
2017079.0,1600928348.507
2013349.0,1600928348.547
2011166.0,1600928348.587
2010724.0,1600928348.627
2010843.0,1600928348.667
2011622.0,1600928348.707
2013004.0,1600928348.747
2013787.0,1600928348.787
2014248.0,1600928348.827
2014786.0,1600928348.867
2016059.0,1600928348.907
2017248.0,1600928348.95
2019151.0,1600928348.991
2021389.0,1600928349.032
2023883.0,1600928349.071
2026001.0,1600928349.111
2028268.0,1600928349.152
2030324.0,1600928349.191
2037661.0,1600928349.311
2032730.0,1600928349.232
2040406.0,1600928349.352
2042969.0,1600928349.393
2045587.0,1600928349.432
2048566.0,1600928349.472
2052568.0,1600928349.552
2044533.0,1600928349.634
2049438.0,1600928349.592
2051335.0,1600928349.513
2035458.0,1600928349.272
2038861.0,1600928349.712
2037504.0,1600928349.753
2036685.0,1600928349.792
2036418.0,1600928349.833
2036112.0,1600928349.874
2035342.0,1600928349.913
2034445.0,1600928349.953
2040800.0,1600928349.672
2034060.0,1600928349.994
2034549.0,1600928350.033
2035072.0,1600928350.073
2036025.0,1600928350.114
2037296.0,1600928350.153
2038725.0,1600928350.193
2040348.0,1600928350.235
2041677.0,1600928350.273
2043450.0,1600928350.313
2045006.0,1600928350.354
2046919.0,1600928350.393
2049096.0,1600928350.434
2050968.0,1600928350.474
2052937.0,1600928350.513
2055110.0,1600928350.554
2057540.0,1600928350.595
2059794.0,1600928350.634
2059389.0,1600928350.674
2054555.0,1600928350.715
2047751.0,1600928350.754
2042766.0,1600928350.794
2040104.0,1600928350.836
2038084.0,1600928350.874
2035881.0,1600928350.955
2036842.0,1600928350.914
2035058.0,1600928350.994
2033628.0,1600928351.035
2032502.0,1600928351.075
2032077.0,1600928351.114
2031986.0,1600928351.154
2032365.0,1600928351.196
2033430.0,1600928351.235
2034398.0,1600928351.275
2035423.0,1600928351.316
2036951.0,1600928351.355
2038260.0,1600928351.395
2039824.0,1600928351.437
2041273.0,1600928351.475
2042936.0,1600928351.515
2044749.0,1600928351.556
2046609.0,1600928351.595
2048581.0,1600928351.636
2050682.0,1600928351.677
2053008.0,1600928351.716
2055159.0,1600928351.756
2052991.0,1600928351.797
2046690.0,1600928351.837
2040543.0,1600928351.876
2036646.0,1600928351.917
2034684.0,1600928351.956
2033388.0,1600928351.996
2033151.0,1600928352.038
2032865.0,1600928352.076
2031975.0,1600928352.117
2030668.0,1600928352.158
2029860.0,1600928352.197
2029730.0,1600928352.238
2030037.0,1600928352.278
2030552.0,1600928352.317
2031567.0,1600928352.357
2033126.0,1600928352.398
2034382.0,1600928352.438
2035991.0,1600928352.477
2037324.0,1600928352.519
2039199.0,1600928352.558
2040706.0,1600928352.598
2042806.0,1600928352.639
2044803.0,1600928352.678
2046635.0,1600928352.718
2048850.0,1600928352.759
2051119.0,1600928352.798
2052387.0,1600928352.839
2048161.0,1600928352.879
2041530.0,1600928352.918
2035995.0,1600928352.958
2033002.0,1600928352.999
2031600.0,1600928353.039
2030679.0,1600928353.079
2030773.0,1600928353.12
2030190.0,1600928353.159
2029327.0,1600928353.199
2028118.0,1600928353.241
2027293.0,1600928353.279
2027299.0,1600928353.319
2028026.0,1600928353.36
2029107.0,1600928353.399
2030381.0,1600928353.44
2031730.0,1600928353.48
2033007.0,1600928353.519
2034788.0,1600928353.56
2036401.0,1600928353.601
2038086.0,1600928353.64
2039795.0,1600928353.68
2041484.0,1600928353.721
2043652.0,1600928353.76
2045698.0,1600928353.8
2048045.0,1600928353.842
2050009.0,1600928353.88
2047617.0,1600928353.92
2040476.0,1600928353.962
2033339.0,1600928354.001
2028135.0,1600928354.041
2025485.0,1600928354.082
2023325.0,1600928354.121
2022181.0,1600928354.161
2020949.0,1600928354.202
2019562.0,1600928354.243
2017321.0,1600928354.281
2015778.0,1600928354.322
2014993.0,1600928354.361
2014771.0,1600928354.401
2014989.0,1600928354.443
2015658.0,1600928354.482
2016661.0,1600928354.522
2016993.0,1600928354.563
2018081.0,1600928354.602
2018998.0,1600928354.643
2020351.0,1600928354.683
2021694.0,1600928354.722
2023234.0,1600928354.762
2024719.0,1600928354.803
2026233.0,1600928354.843
2028305.0,1600928354.882
2030251.0,1600928354.923
2030936.0,1600928354.963
2024886.0,1600928355.003
2016602.0,1600928355.044
2009467.0,1600928355.083
2005322.0,1600928355.123
2003027.0,1600928355.164
2000855.0,1600928355.203
1999560.0,1600928355.244
1998588.0,1600928355.284
1996683.0,1600928355.323
1994804.0,1600928355.363
1993994.0,1600928355.405
1994130.0,1600928355.444
1994669.0,1600928355.484
1995225.0,1600928355.525
1996374.0,1600928355.564
1997482.0,1600928355.604
1998827.0,1600928355.646
2000212.0,1600928355.684
2001671.0,1600928355.724
2003232.0,1600928355.765
2004611.0,1600928355.804
2006760.0,1600928355.845
2009082.0,1600928355.886
2011136.0,1600928355.925
2013511.0,1600928355.965
2015872.0,1600928356.006
2015827.0,1600928356.046
2009607.0,1600928356.085
2002582.0,1600928356.126
1997836.0,1600928356.165
1995088.0,1600928356.205
1993570.0,1600928356.247
1992745.0,1600928356.285
1992352.0,1600928356.326
1991473.0,1600928356.367
1989833.0,1600928356.406
1988528.0,1600928356.446
1988357.0,1600928356.487
1988699.0,1600928356.526
1989265.0,1600928356.566
1991946.0,1600928356.647
1993596.0,1600928356.686
1990614.0,1600928356.607
1996212.0,1600928356.767
1994755.0,1600928356.728
1998051.0,1600928356.807
1999387.0,1600928356.849
2001488.0,1600928356.887
2003304.0,1600928356.927
2005741.0,1600928356.968
2007779.0,1600928357.007
2010227.0,1600928357.048
2012330.0,1600928357.088
2009978.0,1600928357.127
2004335.0,1600928357.168
1999516.0,1600928357.209
1996828.0,1600928357.248
1995421.0,1600928357.288
1995254.0,1600928357.329
1995582.0,1600928357.368
1995732.0,1600928357.408
1995086.0,1600928357.45
1994581.0,1600928357.488
1994203.0,1600928357.528
1994831.0,1600928357.569
1996106.0,1600928357.608
1997456.0,1600928357.649
1999352.0,1600928357.69
2001000.0,1600928357.729
2002638.0,1600928357.769
2004416.0,1600928357.81
2006165.0,1600928357.85
2008452.0,1600928357.889
2010261.0,1600928357.93
2012574.0,1600928357.97
2015072.0,1600928358.01
2017051.0,1600928358.051
2019813.0,1600928358.09
2020038.0,1600928358.13
2014994.0,1600928358.171
2008756.0,1600928358.21
2004582.0,1600928358.251
2002605.0,1600928358.291
2000745.0,1600928358.33
1999818.0,1600928358.37
1999491.0,1600928358.412
1998948.0,1600928358.451
1998234.0,1600928358.491
1997585.0,1600928358.532
1997292.0,1600928358.571
1998109.0,1600928358.611
1999127.0,1600928358.653
2000321.0,1600928358.691
2002142.0,1600928358.731
2003464.0,1600928358.773
2005145.0,1600928358.812
2006985.0,1600928358.853
2008782.0,1600928358.893
2010893.0,1600928358.932
2012741.0,1600928358.972
2014970.0,1600928359.013
2017040.0,1600928359.053
2019317.0,1600928359.093
2021699.0,1600928359.134
2022396.0,1600928359.173
2017082.0,1600928359.213
2009737.0,1600928359.255
2004500.0,1600928359.293
2001470.0,1600928359.333
1999123.0,1600928359.375
1997514.0,1600928359.414
1996496.0,1600928359.454
1995220.0,1600928359.495
1994157.0,1600928359.534
1992837.0,1600928359.574
1992240.0,1600928359.615
1992169.0,1600928359.655
1992710.0,1600928359.694
1993482.0,1600928359.735
1994687.0,1600928359.774
1995928.0,1600928359.815
1997674.0,1600928359.856
1999176.0,1600928359.895
2000710.0,1600928359.935
2002449.0,1600928359.976
2004191.0,1600928360.015
2006279.0,1600928360.056
2008542.0,1600928360.096
2010537.0,1600928360.135
2013192.0,1600928360.176
2015622.0,1600928360.217
2016650.0,1600928360.256
2011435.0,1600928360.296
2003977.0,1600928360.337
1998698.0,1600928360.376
1995609.0,1600928360.416
1993620.0,1600928360.458
1992161.0,1600928360.496
1991452.0,1600928360.536
1990622.0,1600928360.577
1989380.0,1600928360.616
1988383.0,1600928360.657
1987912.0,1600928360.698
1988188.0,1600928360.737
1988859.0,1600928360.777
1989659.0,1600928360.818
1990810.0,1600928360.858
1992549.0,1600928360.897
1994084.0,1600928360.938
1995775.0,1600928360.977
1997353.0,1600928361.017
1999101.0,1600928361.059
2000915.0,1600928361.097
2002942.0,1600928361.137
2005185.0,1600928361.178
2007620.0,1600928361.217
2009928.0,1600928361.258
2012715.0,1600928361.299
2014950.0,1600928361.338
1995053.0,1600928361.618
1995387.0,1600928361.66
1994483.0,1600928361.698
2013915.0,1600928361.378
2008133.0,1600928361.419
2002302.0,1600928361.458
1998535.0,1600928361.498
1993343.0,1600928361.779
1993631.0,1600928361.818
1994292.0,1600928361.859
1993794.0,1600928361.738
1994606.0,1600928361.9
1995670.0,1600928361.578
1995500.0,1600928361.939
1996796.0,1600928361.979
1996806.0,1600928361.539
1998111.0,1600928362.02
1999635.0,1600928362.06
2001775.0,1600928362.099
2003761.0,1600928362.14
2005715.0,1600928362.179
2007916.0,1600928362.219
2010286.0,1600928362.261
2012975.0,1600928362.299
2015218.0,1600928362.339
2017342.0,1600928362.38
2019552.0,1600928362.42
2006102.0,1600928362.54
2002141.0,1600928362.58
2000361.0,1600928362.621
1999316.0,1600928362.661
1998852.0,1600928362.741
1998957.0,1600928362.7
2012318.0,1600928362.501
2018312.0,1600928362.46
1998580.0,1600928362.78
1997583.0,1600928362.82
1996112.0,1600928362.9
1996524.0,1600928362.941
1996554.0,1600928362.862
1997243.0,1600928362.982
1998418.0,1600928363.021
1999610.0,1600928363.062
2001630.0,1600928363.102
2004051.0,1600928363.141
2006313.0,1600928363.181
2008079.0,1600928363.222
2010257.0,1600928363.262
2014607.0,1600928363.342
2017235.0,1600928363.382
2022391.0,1600928363.463
2019640.0,1600928363.502
2012731.0,1600928363.542
2006749.0,1600928363.583
2012266.0,1600928363.301
2019820.0,1600928363.422
2000179.0,1600928363.663
1997722.0,1600928363.742
1997136.0,1600928363.782
1998650.0,1600928363.703
2002091.0,1600928363.622
1996168.0,1600928363.824
1994586.0,1600928363.863
1993476.0,1600928363.903
1993265.0,1600928363.983
1993716.0,1600928364.023
1993136.0,1600928363.944
1994273.0,1600928364.065
1995216.0,1600928364.103
1995940.0,1600928364.143
1996908.0,1600928364.184
1997847.0,1600928364.223
1998740.0,1600928364.264
2000012.0,1600928364.305
2001552.0,1600928364.344
2003389.0,1600928364.384
2005092.0,1600928364.425
2006983.0,1600928364.465
2007642.0,1600928364.504
2000832.0,1600928364.545
1991164.0,1600928364.584
1983681.0,1600928364.624
1978645.0,1600928364.666
1975469.0,1600928364.704
1972779.0,1600928364.745
1970620.0,1600928364.786
1968801.0,1600928364.825
1966343.0,1600928364.866
1964259.0,1600928364.906
1962591.0,1600928364.945
1962294.0,1600928364.985
1961862.0,1600928365.026
1962388.0,1600928365.066
1962927.0,1600928365.105
1963546.0,1600928365.147
1964658.0,1600928365.186
1965797.0,1600928365.226
1967092.0,1600928365.267
1968702.0,1600928365.306
1970370.0,1600928365.346
1972359.0,1600928365.387
1974387.0,1600928365.426
1976814.0,1600928365.467
1979511.0,1600928365.546
1979542.0,1600928365.507
1972097.0,1600928365.586
1963017.0,1600928365.627
1956963.0,1600928365.667
1953424.0,1600928365.707
1951419.0,1600928365.748
1949913.0,1600928365.787
1949186.0,1600928365.827
1948033.0,1600928365.869
1946539.0,1600928365.907
1945391.0,1600928365.947
1945290.0,1600928365.988
1945666.0,1600928366.027
1946602.0,1600928366.068
1948034.0,1600928366.109
1949598.0,1600928366.148
1951400.0,1600928366.188
1952897.0,1600928366.229
1954833.0,1600928366.269
1957037.0,1600928366.308
1959362.0,1600928366.349
1961491.0,1600928366.388
1964137.0,1600928366.428
1966774.0,1600928366.47
1969359.0,1600928366.508
1972455.0,1600928366.548
1974709.0,1600928366.59
1971061.0,1600928366.629
1965469.0,1600928366.669
1961478.0,1600928366.71
1959975.0,1600928366.749
1959496.0,1600928366.789
1959655.0,1600928366.83
1960438.0,1600928366.87
1960829.0,1600928366.909
1960980.0,1600928366.95
1961057.0,1600928366.989
1961871.0,1600928367.029
1963154.0,1600928367.071
1964919.0,1600928367.11
1967151.0,1600928367.15
1969482.0,1600928367.191
1971870.0,1600928367.23
1974231.0,1600928367.271
1976871.0,1600928367.311
1979512.0,1600928367.35
1982076.0,1600928367.39
1985066.0,1600928367.431
1988197.0,1600928367.471
1991256.0,1600928367.51
1994659.0,1600928367.552
1998187.0,1600928367.591
2000141.0,1600928367.631
1997884.0,1600928367.673
1994060.0,1600928367.711
1991576.0,1600928367.751
1990942.0,1600928367.792
1990802.0,1600928367.831
1991111.0,1600928367.872
1991902.0,1600928367.912
1992446.0,1600928367.952
1993067.0,1600928367.992
1993672.0,1600928368.033
1994814.0,1600928368.073
1996392.0,1600928368.112
1998488.0,1600928368.153
2000506.0,1600928368.192
2002983.0,1600928368.232
2005499.0,1600928368.274
2007721.0,1600928368.312
2010011.0,1600928368.353
2012382.0,1600928368.394
2015133.0,1600928368.433
2017842.0,1600928368.474
2020778.0,1600928368.514
2023493.0,1600928368.553
2026459.0,1600928368.593
2029433.0,1600928368.634
2032191.0,1600928368.674
2033017.0,1600928368.714
2029475.0,1600928368.755
2025308.0,1600928368.794
2022804.0,1600928368.834
2021691.0,1600928368.876
2021186.0,1600928368.914
2020621.0,1600928368.954
2020671.0,1600928368.995
2020579.0,1600928369.034
2020008.0,1600928369.075
2019921.0,1600928369.116
2020603.0,1600928369.155
2021410.0,1600928369.195
2022622.0,1600928369.236
2024181.0,1600928369.276
2025648.0,1600928369.315
2027115.0,1600928369.356
2028980.0,1600928369.396
2030820.0,1600928369.436
2032506.0,1600928369.478
2034746.0,1600928369.516
2036636.0,1600928369.556
2038875.0,1600928369.597
2041331.0,1600928369.636
2043558.0,1600928369.677
2046078.0,1600928369.718
2048510.0,1600928369.757
2047664.0,1600928369.797
2042760.0,1600928369.838
2037408.0,1600928369.878
2034112.0,1600928369.917
2032113.0,1600928369.958
2030631.0,1600928369.997
2029287.0,1600928370.038
2028728.0,1600928370.079
2027596.0,1600928370.118
2026486.0,1600928370.158
2025708.0,1600928370.199
2025510.0,1600928370.238
2025891.0,1600928370.279
2026861.0,1600928370.319
2027999.0,1600928370.359
2028993.0,1600928370.399
2030052.0,1600928370.44
2031388.0,1600928370.48
2032648.0,1600928370.519
2033844.0,1600928370.56
2035711.0,1600928370.599
2037132.0,1600928370.639
2038795.0,1600928370.681
2040787.0,1600928370.719
2042599.0,1600928370.76
2044383.0,1600928370.801
2042253.0,1600928370.84
2035990.0,1600928370.88
2029546.0,1600928370.921
2025734.0,1600928370.96
2023555.0,1600928371.0
2022454.0,1600928371.041
2021461.0,1600928371.081
2020530.0,1600928371.12
2019142.0,1600928371.161
2017825.0,1600928371.2
2016684.0,1600928371.24
2016570.0,1600928371.282
2016820.0,1600928371.321
2017884.0,1600928371.361
2018956.0,1600928371.402
2020199.0,1600928371.441
2021584.0,1600928371.482
2022747.0,1600928371.522
2024580.0,1600928371.561
2026558.0,1600928371.601
2028418.0,1600928371.642
2030563.0,1600928371.682
2032366.0,1600928371.722
2034695.0,1600928371.763
2036992.0,1600928371.802
2037926.0,1600928371.842
2033229.0,1600928371.884
2022057.0,1600928371.962
2026663.0,1600928371.922
2017758.0,1600928372.042
2019279.0,1600928372.003
2017642.0,1600928372.083
2017888.0,1600928372.123
2017609.0,1600928372.162
2016087.0,1600928372.244
2016759.0,1600928372.202
2015812.0,1600928372.283
2016736.0,1600928372.323
2017624.0,1600928372.364
2019000.0,1600928372.403
2020365.0,1600928372.443
2022406.0,1600928372.485
2023704.0,1600928372.523
2025451.0,1600928372.563
2027256.0,1600928372.604
2029151.0,1600928372.643
2030918.0,1600928372.684
2033110.0,1600928372.725
2035291.0,1600928372.764
2037782.0,1600928372.804
2039717.0,1600928372.845
2038307.0,1600928372.885
2032348.0,1600928372.924
2026593.0,1600928372.965
2023246.0,1600928373.005
2021443.0,1600928373.045
2020658.0,1600928373.087
2020895.0,1600928373.125
2021171.0,1600928373.166
2020458.0,1600928373.207
2019433.0,1600928373.246
2018753.0,1600928373.287
2020849.0,1600928373.406
2019478.0,1600928373.366
2018995.0,1600928373.327
2021832.0,1600928373.447
2023567.0,1600928373.487
2025240.0,1600928373.526
2026712.0,1600928373.567
2028378.0,1600928373.607
2030110.0,1600928373.647
2032276.0,1600928373.688
2036095.0,1600928373.767
2038160.0,1600928373.808
2033821.0,1600928373.727
2039633.0,1600928373.847
2035272.0,1600928373.888
2028111.0,1600928373.928
2022206.0,1600928373.967
2018583.0,1600928374.007
2016245.0,1600928374.049
2014772.0,1600928374.088
2014345.0,1600928374.128
2013313.0,1600928374.169
2012056.0,1600928374.208
2010233.0,1600928374.248
2009469.0,1600928374.29
2009198.0,1600928374.328
1994247.0,1600928375.131
1992364.0,1600928375.17
1989931.0,1600928375.211
2016136.0,1600928374.569
2017484.0,1600928374.609
2019104.0,1600928374.65
2020988.0,1600928374.69
2022923.0,1600928374.729
2025282.0,1600928374.77
2027472.0,1600928374.809
2024964.0,1600928374.85
2017309.0,1600928374.891
2008936.0,1600928374.93
2003366.0,1600928374.97
2000073.0,1600928375.011
1997203.0,1600928375.05
1995861.0,1600928375.091
2009628.0,1600928374.368
2010325.0,1600928374.409
2012968.0,1600928374.489
2014432.0,1600928374.53
2011705.0,1600928374.449
1988279.0,1600928375.252
1987523.0,1600928375.291
1987090.0,1600928375.331
1987551.0,1600928375.372
1988005.0,1600928375.411
1989772.0,1600928375.493
1988983.0,1600928375.451
1990727.0,1600928375.531
1991474.0,1600928375.571
1993153.0,1600928375.613
1994212.0,1600928375.652
1995721.0,1600928375.692
1997733.0,1600928375.733
1999702.0,1600928375.772
2000584.0,1600928375.812
1994668.0,1600928375.853
1973877.0,1600928375.974
1978353.0,1600928375.932
1970634.0,1600928376.013
1986150.0,1600928375.893
1968309.0,1600928376.053
1967145.0,1600928376.095
1963092.0,1600928376.173
1965394.0,1600928376.133
1961282.0,1600928376.214
1960470.0,1600928376.253
1960487.0,1600928376.335
1960143.0,1600928376.294
1960815.0,1600928376.374
1961673.0,1600928376.414
1962416.0,1600928376.455
1963963.0,1600928376.495
1965341.0,1600928376.534
1968760.0,1600928376.614
1972815.0,1600928376.696
1975355.0,1600928376.735
1977595.0,1600928376.775
1970511.0,1600928376.654
1967002.0,1600928376.575
1978591.0,1600928376.816
1974284.0,1600928376.855
1968537.0,1600928376.896
1964405.0,1600928376.936
1962617.0,1600928376.975
1962028.0,1600928377.057
1961803.0,1600928377.015
1962575.0,1600928377.136
1962577.0,1600928377.096
1962517.0,1600928377.177
1962453.0,1600928377.216
1963316.0,1600928377.256
1965203.0,1600928377.298
1967420.0,1600928377.336
1969597.0,1600928377.376
1972074.0,1600928377.418
1974343.0,1600928377.457
1976907.0,1600928377.497
1979287.0,1600928377.538
1982344.0,1600928377.577
1985066.0,1600928377.617
1988245.0,1600928377.658
1991267.0,1600928377.698
1994557.0,1600928377.737
1997819.0,1600928377.779
2000612.0,1600928377.818
1999311.0,1600928377.858
1995862.0,1600928377.9
1993618.0,1600928377.938
1993184.0,1600928377.978
1993337.0,1600928378.019
1993805.0,1600928378.058
1995112.0,1600928378.099
1996095.0,1600928378.14
1996929.0,1600928378.179
1997869.0,1600928378.219
1999179.0,1600928378.26
2000956.0,1600928378.3
2002864.0,1600928378.339
2005374.0,1600928378.38
2008246.0,1600928378.419
2010476.0,1600928378.459
2013250.0,1600928378.501
2015734.0,1600928378.54
2018309.0,1600928378.58
2021068.0,1600928378.621
2024191.0,1600928378.66
2026904.0,1600928378.701
2029880.0,1600928378.741
2033021.0,1600928378.78
2036482.0,1600928378.82
2038966.0,1600928378.862
2038677.0,1600928378.901
2035640.0,1600928378.941
2032766.0,1600928378.982
2031731.0,1600928379.021
2031405.0,1600928379.061
2031006.0,1600928379.103
2031412.0,1600928379.141
2031920.0,1600928379.181
2032170.0,1600928379.222
2032468.0,1600928379.262
2032778.0,1600928379.302
2033727.0,1600928379.343
2035155.0,1600928379.382
2036434.0,1600928379.422
2038454.0,1600928379.463
2040466.0,1600928379.503
2042242.0,1600928379.542
2044279.0,1600928379.583
2046230.0,1600928379.623
2048240.0,1600928379.663
2050404.0,1600928379.704
2052566.0,1600928379.743
2055180.0,1600928379.783
2057463.0,1600928379.824
2059916.0,1600928379.863
2062411.0,1600928379.904
2064370.0,1600928379.944
2063464.0,1600928379.983
2059248.0,1600928380.023
2055428.0,1600928380.064
2053077.0,1600928380.104
2051832.0,1600928380.143
2050560.0,1600928380.184
2050351.0,1600928380.224
2049851.0,1600928380.264
2049245.0,1600928380.305
2048320.0,1600928380.344
2048131.0,1600928380.384
2047938.0,1600928380.425
2048522.0,1600928380.464
2049451.0,1600928380.505
2050709.0,1600928380.545
2051826.0,1600928380.584
2053293.0,1600928380.624
2054603.0,1600928380.665
2055788.0,1600928380.705
2057623.0,1600928380.744
2059000.0,1600928380.785
2060707.0,1600928380.825
2062698.0,1600928380.865
2064875.0,1600928380.906
2066852.0,1600928380.945
2068912.0,1600928380.985
2070821.0,1600928381.026
2072101.0,1600928381.065
2068336.0,1600928381.106
2062288.0,1600928381.146
2057352.0,1600928381.185
2054320.0,1600928381.225
2052434.0,1600928381.266
2051117.0,1600928381.306
2050003.0,1600928381.345
2048654.0,1600928381.387
2047285.0,1600928381.426
2045556.0,1600928381.466
2044968.0,1600928381.508
2044644.0,1600928381.546
2044978.0,1600928381.586
2045292.0,1600928381.627
2046472.0,1600928381.666
2047232.0,1600928381.707
2048369.0,1600928381.747
2048954.0,1600928381.786
2050333.0,1600928381.826
2051611.0,1600928381.868
2052790.0,1600928381.907
2054617.0,1600928381.947
2056313.0,1600928381.988
2058040.0,1600928382.027
2060156.0,1600928382.067
2061942.0,1600928382.109
2063744.0,1600928382.147
2064376.0,1600928382.187
2059506.0,1600928382.228
2051516.0,1600928382.267
2045269.0,1600928382.308
2041444.0,1600928382.348
2038871.0,1600928382.387
2037525.0,1600928382.427
2036582.0,1600928382.468
2035059.0,1600928382.508
2033035.0,1600928382.547
2031258.0,1600928382.589
2029969.0,1600928382.628
2029871.0,1600928382.668
2030114.0,1600928382.71
2030708.0,1600928382.748
2031277.0,1600928382.788
2032489.0,1600928382.829
2033636.0,1600928382.868
2034901.0,1600928382.909
2036137.0,1600928382.949
2037067.0,1600928382.988
2038754.0,1600928383.028
2040150.0,1600928383.069
2041850.0,1600928383.109
2043464.0,1600928383.149
2045562.0,1600928383.19
2047442.0,1600928383.229
2048533.0,1600928383.269
2043226.0,1600928383.311
2034249.0,1600928383.349
2026304.0,1600928383.389
2021455.0,1600928383.43
2018339.0,1600928383.469
2016608.0,1600928383.51
2015609.0,1600928383.55
2014323.0,1600928383.589
2012440.0,1600928383.63
2010014.0,1600928383.671
2008536.0,1600928383.71
2007656.0,1600928383.75
2007681.0,1600928383.791
2008096.0,1600928383.83
2008952.0,1600928383.87
2009896.0,1600928383.912
2011174.0,1600928383.95
2012480.0,1600928383.99
2013668.0,1600928384.031
2014975.0,1600928384.071
2016356.0,1600928384.111
2018045.0,1600928384.152
2019513.0,1600928384.191
2021692.0,1600928384.231
2023480.0,1600928384.272
2024981.0,1600928384.313
2019146.0,1600928384.351
2009025.0,1600928384.392
2000418.0,1600928384.431
1995171.0,1600928384.471
1992127.0,1600928384.513
1990357.0,1600928384.551
1989700.0,1600928384.592
1988353.0,1600928384.633
1985740.0,1600928384.672
1982901.0,1600928384.712
1980956.0,1600928384.753
1979914.0,1600928384.792
1979675.0,1600928384.832
1980012.0,1600928384.873
1980915.0,1600928384.913
1981786.0,1600928384.952
1983043.0,1600928384.993
1983598.0,1600928385.029
1984848.0,1600928385.07
1985871.0,1600928385.111
1986916.0,1600928385.15
1988539.0,1600928385.19
1991866.0,1600928385.27
1990301.0,1600928385.231
1977892.0,1600928385.351
1966372.0,1600928385.39
1989103.0,1600928385.311
1957910.0,1600928385.431
1952479.0,1600928385.472
1948346.0,1600928385.512
1945198.0,1600928385.551
1942790.0,1600928385.592
1939535.0,1600928385.631
1935359.0,1600928385.671
1932069.0,1600928385.713
1930242.0,1600928385.751
1929104.0,1600928385.792
1928674.0,1600928385.833
1928767.0,1600928385.872
1928760.0,1600928385.912
1929290.0,1600928385.953
1929969.0,1600928385.992
1930492.0,1600928386.032
1931198.0,1600928386.073
1932374.0,1600928386.113
1934030.0,1600928386.152
1935783.0,1600928386.194
1937745.0,1600928386.233
1934006.0,1600928386.273
1923983.0,1600928386.315
1914562.0,1600928386.353
1908729.0,1600928386.393
1904478.0,1600928386.434
1901231.0,1600928386.473
1899122.0,1600928386.514
1897600.0,1600928386.555
1895437.0,1600928386.594
1893561.0,1600928386.634
1892586.0,1600928386.675
1892801.0,1600928386.715
1893773.0,1600928386.754
1895102.0,1600928386.795
1896903.0,1600928386.834
1898555.0,1600928386.874
1900752.0,1600928386.916
1902879.0,1600928386.955
1905232.0,1600928386.995
1907981.0,1600928387.036
1914132.0,1600928387.116
1910770.0,1600928387.075
1920788.0,1600928387.195
1919578.0,1600928387.235
1914323.0,1600928387.276
1909243.0,1600928387.316
1906833.0,1600928387.356
1917513.0,1600928387.156
1905434.0,1600928387.397
1904868.0,1600928387.436
1905091.0,1600928387.476
1905359.0,1600928387.518
1905919.0,1600928387.596
1908846.0,1600928387.676
1913967.0,1600928387.758
1916814.0,1600928387.797
1911306.0,1600928387.717
1906882.0,1600928387.637
1905677.0,1600928387.556
1919593.0,1600928387.837
1922634.0,1600928387.878
1925759.0,1600928387.918
1928829.0,1600928387.957
1932186.0,1600928387.999
1935847.0,1600928388.038
1939269.0,1600928388.078
1943193.0,1600928388.12
1947036.0,1600928388.158
1950912.0,1600928388.198
1953087.0,1600928388.239
1950792.0,1600928388.278
1947617.0,1600928388.319
1946315.0,1600928388.36
1946222.0,1600928388.399
1946282.0,1600928388.439
1947313.0,1600928388.48
1948688.0,1600928388.52
1949778.0,1600928388.559
1950631.0,1600928388.6
1951998.0,1600928388.639
1954063.0,1600928388.679
1956538.0,1600928388.721
1959010.0,1600928388.76
1962102.0,1600928388.8
1964808.0,1600928388.841
1968008.0,1600928388.88
1971098.0,1600928388.921
1974277.0,1600928388.961
1977444.0,1600928389.0
1980916.0,1600928389.041
1984559.0,1600928389.082
1987813.0,1600928389.121
1991333.0,1600928389.161
1995031.0,1600928389.202
1998490.0,1600928389.241
2002481.0,1600928389.281
2004612.0,1600928389.323
2003245.0,1600928389.361
2000443.0,1600928389.402
1998753.0,1600928389.443
1998357.0,1600928389.482
1998034.0,1600928389.523
1997971.0,1600928389.563
1998662.0,1600928389.602
1999305.0,1600928389.642
2000152.0,1600928389.683
2000760.0,1600928389.723
2002225.0,1600928389.763
2004079.0,1600928389.804
2005947.0,1600928389.843
2010881.0,1600928389.883
2013161.0,1600928389.925
2015844.0,1600928389.963
2017933.0,1600928390.003
2020513.0,1600928390.044
2023199.0,1600928390.083
2026211.0,1600928390.124
2032089.0,1600928390.204
2029153.0,1600928390.165
2034845.0,1600928390.244
2037828.0,1600928390.285
2040778.0,1600928390.325
2043980.0,1600928390.364
2046862.0,1600928390.405
2048530.0,1600928390.444
2046172.0,1600928390.484
2043067.0,1600928390.526
2040843.0,1600928390.564
2039904.0,1600928390.604
2039214.0,1600928390.646
2038478.0,1600928390.685
2038461.0,1600928390.725
2038495.0,1600928390.766
2038125.0,1600928390.805
2038405.0,1600928390.845
2038793.0,1600928390.886
2039702.0,1600928390.926
2040770.0,1600928390.965
2042030.0,1600928391.006
2043354.0,1600928391.045
2044955.0,1600928391.085
2046555.0,1600928391.127
2048298.0,1600928391.165
2049892.0,1600928391.206
2051711.0,1600928391.247
2053750.0,1600928391.286
2055808.0,1600928391.326
2058138.0,1600928391.367
2060064.0,1600928391.406
2062371.0,1600928391.446
2064480.0,1600928391.487
2066668.0,1600928391.527
2069044.0,1600928391.566
2069684.0,1600928391.607
2066348.0,1600928391.646
2062136.0,1600928391.686
2058859.0,1600928391.728
2056905.0,1600928391.767
2055320.0,1600928391.807
2054332.0,1600928391.848
2053625.0,1600928391.887
2052884.0,1600928391.928
2051634.0,1600928391.968
2050718.0,1600928392.007
2050493.0,1600928392.047
2050871.0,1600928392.088
2051144.0,1600928392.128
2052094.0,1600928392.167
2052963.0,1600928392.208
2053903.0,1600928392.247
2054730.0,1600928392.288
2055790.0,1600928392.329
2057035.0,1600928392.368
2058389.0,1600928392.408
2059778.0,1600928392.449
2061399.0,1600928392.488
2063026.0,1600928392.529
2064878.0,1600928392.569
2066685.0,1600928392.608
2068410.0,1600928392.648
2070358.0,1600928392.689
2070851.0,1600928392.729
2065697.0,1600928392.768
2059129.0,1600928392.81
2053306.0,1600928392.849
2049642.0,1600928392.889
2046407.0,1600928392.93
2043484.0,1600928392.969
2041669.0,1600928393.009
2039844.0,1600928393.05
2037437.0,1600928393.089
2035522.0,1600928393.13
2033432.0,1600928393.209
2034201.0,1600928393.17
2033246.0,1600928393.249
2034289.0,1600928393.33
2033441.0,1600928393.29
2035338.0,1600928393.411
2034628.0,1600928393.369
2036892.0,1600928393.49
2037939.0,1600928393.531
2039262.0,1600928393.57
2040781.0,1600928393.61
2042355.0,1600928393.651
2044162.0,1600928393.69
2046161.0,1600928393.731
2048226.0,1600928393.771
2049694.0,1600928393.81
2050803.0,1600928393.85
2036076.0,1600928393.45
2046146.0,1600928393.891
2037571.0,1600928393.931
2030304.0,1600928393.97
2025427.0,1600928394.012
2021821.0,1600928394.051
2018533.0,1600928394.091
2016330.0,1600928394.133
2014525.0,1600928394.171
2012180.0,1600928394.211
2009825.0,1600928394.252
2008093.0,1600928394.291
2007267.0,1600928394.332
2007314.0,1600928394.372
2007231.0,1600928394.411
2007673.0,1600928394.452
2008486.0,1600928394.493
2009310.0,1600928394.532
2011343.0,1600928394.613
2010228.0,1600928394.572
2014053.0,1600928394.692
2012550.0,1600928394.652
2015710.0,1600928394.734
2017574.0,1600928394.772
2019431.0,1600928394.812
2023710.0,1600928394.892
2021612.0,1600928394.853
2026104.0,1600928394.933
2027904.0,1600928394.974
2023885.0,1600928395.013
2015624.0,1600928395.053
2008814.0,1600928395.094
2004720.0,1600928395.134
2001779.0,1600928395.173
2000086.0,1600928395.214
1999121.0,1600928395.253
1997977.0,1600928395.293
1996859.0,1600928395.335
1995030.0,1600928395.373
1994192.0,1600928395.413
1993858.0,1600928395.455
1994519.0,1600928395.494
1995084.0,1600928395.534
1996360.0,1600928395.575
1997642.0,1600928395.614
2001059.0,1600928395.695
2002647.0,1600928395.735
1999220.0,1600928395.654
2006488.0,1600928395.816
2004587.0,1600928395.774
2008805.0,1600928395.855
2010916.0,1600928395.895
2013737.0,1600928395.937
2016389.0,1600928395.975
2019104.0,1600928396.015
2021145.0,1600928396.056
2017738.0,1600928396.095
2012128.0,1600928396.136
2007602.0,1600928396.176
2005171.0,1600928396.216
2004287.0,1600928396.256
2003985.0,1600928396.297
2004715.0,1600928396.336
2005022.0,1600928396.376
2004546.0,1600928396.417
2004174.0,1600928396.456
2004361.0,1600928396.496
2005051.0,1600928396.538
2006143.0,1600928396.576
2007897.0,1600928396.616
2009782.0,1600928396.658
2011941.0,1600928396.697
2013653.0,1600928396.737
2015844.0,1600928396.778
2017717.0,1600928396.817
2019939.0,1600928396.857
2022417.0,1600928396.898
2025038.0,1600928396.938
2027443.0,1600928396.977
2029867.0,1600928397.019
2032618.0,1600928397.107
2033061.0,1600928397.147
2028927.0,1600928397.188
2023705.0,1600928397.227
2020175.0,1600928397.267
2018707.0,1600928397.308
2017585.0,1600928397.347
2017211.0,1600928397.388
2017150.0,1600928397.428
2017130.0,1600928397.467
2016409.0,1600928397.508
2015645.0,1600928397.549
2015930.0,1600928397.588
2016820.0,1600928397.628
2017862.0,1600928397.669
2019215.0,1600928397.708
2020551.0,1600928397.748
2022360.0,1600928397.79
2023934.0,1600928397.828
2025517.0,1600928397.868
2027545.0,1600928397.91
2029556.0,1600928397.949
2031337.0,1600928397.989
2033464.0,1600928398.03
2035775.0,1600928398.069
2038511.0,1600928398.109
2040555.0,1600928398.15
2037866.0,1600928398.19
2032079.0,1600928398.229
2027158.0,1600928398.27
2024150.0,1600928398.309
2022578.0,1600928398.349
2020698.0,1600928398.391
2020229.0,1600928398.43
2019362.0,1600928398.47
2019024.0,1600928398.511
2017829.0,1600928398.55
2017762.0,1600928398.591
2018154.0,1600928398.631
2018629.0,1600928398.67
2020157.0,1600928398.71
2021053.0,1600928398.752
2022411.0,1600928398.791
2024032.0,1600928398.831
2025261.0,1600928398.872
2027112.0,1600928398.911
2028856.0,1600928398.951
2030563.0,1600928398.993
2032797.0,1600928399.031
2034951.0,1600928399.071
2037366.0,1600928399.112
2039748.0,1600928399.152
2042405.0,1600928399.192
2042844.0,1600928399.233
2038794.0,1600928399.272
2033894.0,1600928399.312
2030845.0,1600928399.353
2028730.0,1600928399.393
2027412.0,1600928399.432
2026271.0,1600928399.473
2025898.0,1600928399.512
2025537.0,1600928399.552
2024864.0,1600928399.594
2024564.0,1600928399.633
2024730.0,1600928399.673
2025553.0,1600928399.714
2026565.0,1600928399.753
2027945.0,1600928399.794
2029294.0,1600928399.834
2030417.0,1600928399.873
2032111.0,1600928399.914
2033797.0,1600928399.955
2035223.0,1600928399.994
2036855.0,1600928400.034
2039024.0,1600928400.075
2041127.0,1600928400.114
2043415.0,1600928400.154
2045761.0,1600928400.196
2048154.0,1600928400.235
2050643.0,1600928400.275
2051609.0,1600928400.316
2048792.0,1600928400.355
2044545.0,1600928400.396
2041832.0,1600928400.436
2040259.0,1600928400.475
2039543.0,1600928400.515
2038981.0,1600928400.556
2038995.0,1600928400.596
2038484.0,1600928400.636
2037752.0,1600928400.677
2037354.0,1600928400.716
2037399.0,1600928400.756
2038315.0,1600928400.798
2039547.0,1600928400.836
2040635.0,1600928400.876
2041991.0,1600928400.917
2043343.0,1600928400.956
2044634.0,1600928400.997
2046193.0,1600928401.037
2047641.0,1600928401.076
2049666.0,1600928401.116
2051422.0,1600928401.157
2053474.0,1600928401.197
2055066.0,1600928401.237
2057252.0,1600928401.278
2059325.0,1600928401.317
2061530.0,1600928401.357
2061559.0,1600928401.399
2058130.0,1600928401.437
2053640.0,1600928401.477
2050756.0,1600928401.518
2049176.0,1600928401.557
2047755.0,1600928401.598
2047210.0,1600928401.639
2047006.0,1600928401.678
2046382.0,1600928401.718
2045664.0,1600928401.759
2045077.0,1600928401.799
2045228.0,1600928401.838
2045880.0,1600928401.879
2046759.0,1600928401.918
2047785.0,1600928401.958
2048929.0,1600928402.0
2050262.0,1600928402.039
2051758.0,1600928402.079
2053141.0,1600928402.12
2054289.0,1600928402.159
2056246.0,1600928402.2
2057756.0,1600928402.24
2059548.0,1600928402.279
2061327.0,1600928402.319
2063488.0,1600928402.36
2065618.0,1600928402.4
2067742.0,1600928402.439
2067985.0,1600928402.48
2064127.0,1600928402.52
2058384.0,1600928402.56
2053894.0,1600928402.602
2051226.0,1600928402.64
2049116.0,1600928402.68
2047104.0,1600928402.721
2045626.0,1600928402.76
2044614.0,1600928402.801
2043404.0,1600928402.841
2042284.0,1600928402.88
2041703.0,1600928402.921
2041710.0,1600928402.962
2041955.0,1600928403.002
2042689.0,1600928403.041
2043664.0,1600928403.082
2044691.0,1600928403.121
2045295.0,1600928403.161
2046638.0,1600928403.203
2047738.0,1600928403.241
2049168.0,1600928403.281
2050641.0,1600928403.323
2052581.0,1600928403.362
2054164.0,1600928403.403
2056034.0,1600928403.443
2058261.0,1600928403.482
2059968.0,1600928403.522
2061449.0,1600928403.563
2058389.0,1600928403.603
2052048.0,1600928403.642
2046071.0,1600928403.683
2042123.0,1600928403.723
2039392.0,1600928403.763
2037163.0,1600928403.805
2035336.0,1600928403.843
2033441.0,1600928403.883
2032151.0,1600928403.924
2030147.0,1600928403.963
2028969.0,1600928404.004
2028209.0,1600928404.044
2028330.0,1600928404.083
2028746.0,1600928404.124
2029262.0,1600928404.165
2030144.0,1600928404.205
2030852.0,1600928404.244
2031920.0,1600928404.285
2032928.0,1600928404.324
2034368.0,1600928404.364
2035808.0,1600928404.406
2037525.0,1600928404.444
2039194.0,1600928404.485
2040996.0,1600928404.526
2042934.0,1600928404.565
2045078.0,1600928404.606
2047156.0,1600928404.646
2045840.0,1600928404.685
2039473.0,1600928404.725
2032006.0,1600928404.766
2027035.0,1600928404.806
2023808.0,1600928404.845
2021407.0,1600928404.887
2019531.0,1600928404.926
2018558.0,1600928404.966
2016927.0,1600928405.008
2014934.0,1600928405.046
2013467.0,1600928405.086
2012786.0,1600928405.127
2012519.0,1600928405.166
2012680.0,1600928405.207
2013361.0,1600928405.247
2014364.0,1600928405.287
2015212.0,1600928405.327
2016242.0,1600928405.368
2017377.0,1600928405.408
2018919.0,1600928405.447
2020133.0,1600928405.488
2021774.0,1600928405.527
2023721.0,1600928405.567
2025565.0,1600928405.609
2027720.0,1600928405.647
2029900.0,1600928405.687
2030816.0,1600928405.729
2026163.0,1600928405.768
2019081.0,1600928405.809
2013420.0,1600928405.849
2010548.0,1600928405.888
2008642.0,1600928405.928
2007909.0,1600928405.969
2007567.0,1600928406.009
2007112.0,1600928406.049
2005944.0,1600928406.09
2004849.0,1600928406.129
2004339.0,1600928406.169
2004807.0,1600928406.211
2005815.0,1600928406.249
2007220.0,1600928406.289
2008987.0,1600928406.33
2010760.0,1600928406.369
2012685.0,1600928406.41
2014336.0,1600928406.451
2016369.0,1600928406.49
2018639.0,1600928406.53
2020696.0,1600928406.571
2023166.0,1600928406.611
2025950.0,1600928406.65
2028484.0,1600928406.691
2031199.0,1600928406.73
2031340.0,1600928406.77
2025839.0,1600928406.813
2019134.0,1600928406.851
2014726.0,1600928406.891
2012302.0,1600928406.932
2011209.0,1600928406.971
2010644.0,1600928407.012
2010833.0,1600928407.052
2010650.0,1600928407.091
2010185.0,1600928407.132
2009456.0,1600928407.174
2009646.0,1600928407.21
2010310.0,1600928407.242
2011447.0,1600928407.281
2013064.0,1600928407.32
2014955.0,1600928407.36
2016515.0,1600928407.402
2018758.0,1600928407.441
2020709.0,1600928407.481
2022668.0,1600928407.522
2024900.0,1600928407.561
2027018.0,1600928407.603
2029323.0,1600928407.641
2031799.0,1600928407.68
2034289.0,1600928407.721
2036462.0,1600928407.762
2033445.0,1600928407.802
2026831.0,1600928407.841
2021487.0,1600928407.883
2018698.0,1600928407.922
2017341.0,1600928407.96
2016543.0,1600928408.002
2016057.0,1600928408.04
2016132.0,1600928408.081
2015613.0,1600928408.122
2014992.0,1600928408.161
2014651.0,1600928408.202
2014887.0,1600928408.243
2015866.0,1600928408.282
2017236.0,1600928408.32
2018206.0,1600928408.361
2019959.0,1600928408.401
2021499.0,1600928408.441
2023362.0,1600928408.482
2025165.0,1600928408.521
2027113.0,1600928408.562
2029076.0,1600928408.604
2031045.0,1600928408.642
2033657.0,1600928408.68
2035650.0,1600928408.72
2037693.0,1600928408.76
2034733.0,1600928408.802
2028290.0,1600928408.842
2022262.0,1600928408.881
2019108.0,1600928408.922
2016989.0,1600928408.963
2016082.0,1600928409.003
2016468.0,1600928409.04
2016230.0,1600928409.082
2015519.0,1600928409.114
2014535.0,1600928409.154
2013940.0,1600928409.196
2013747.0,1600928409.234
2014434.0,1600928409.274
2015803.0,1600928409.315
2017109.0,1600928409.355
2018416.0,1600928409.396
2020337.0,1600928409.436
2021869.0,1600928409.475
2023562.0,1600928409.515
2025293.0,1600928409.556
2027205.0,1600928409.596
2029405.0,1600928409.635
2031605.0,1600928409.677
2033518.0,1600928409.717
2029621.0,1600928409.757
2022872.0,1600928409.799
2016698.0,1600928409.838
2013312.0,1600928409.878
2011822.0,1600928409.919
2010922.0,1600928409.958
2011233.0,1600928410.0
2011072.0,1600928410.04
2010303.0,1600928410.079
2009364.0,1600928410.12
2009020.0,1600928410.159
2009214.0,1600928410.199
2011374.0,1600928410.28
2013042.0,1600928410.319
2015087.0,1600928410.359
2016930.0,1600928410.401
2010025.0,1600928410.238
2018460.0,1600928410.439
2020483.0,1600928410.48
2022348.0,1600928410.519
2024550.0,1600928410.558
2026757.0,1600928410.599
2029412.0,1600928410.64
2030245.0,1600928410.679
2024796.0,1600928410.719
2017126.0,1600928410.76
2008462.0,1600928410.84
2006559.0,1600928410.879
2011544.0,1600928410.8
2005697.0,1600928410.918
2005297.0,1600928410.958
2004663.0,1600928411.001
2004042.0,1600928411.039
2003084.0,1600928411.079
2002536.0,1600928411.12
2002734.0,1600928411.159
2003617.0,1600928411.201
2005159.0,1600928411.239
2006503.0,1600928411.277
2008038.0,1600928411.317
2010163.0,1600928411.358
2011704.0,1600928411.398
2013593.0,1600928411.437
2015762.0,1600928411.478
2017536.0,1600928411.518
2019697.0,1600928411.559
2022279.0,1600928411.601
2022978.0,1600928411.639
2017832.0,1600928411.679
2011176.0,1600928411.721
2005664.0,1600928411.76
2002885.0,1600928411.799
2001205.0,1600928411.84
2000534.0,1600928411.879
2000521.0,1600928411.919
1999951.0,1600928411.96
1999151.0,1600928412.0
1998311.0,1600928412.04
1998206.0,1600928412.081
1998830.0,1600928412.118
1999661.0,1600928412.158
2001138.0,1600928412.201
2002739.0,1600928412.239
2004314.0,1600928412.279
2006343.0,1600928412.321
2007943.0,1600928412.36
2010192.0,1600928412.401
2012151.0,1600928412.441
2014003.0,1600928412.478
2016725.0,1600928412.519
2018981.0,1600928412.56
2020329.0,1600928412.6
2016268.0,1600928412.639
2010128.0,1600928412.681
2005158.0,1600928412.72
2003051.0,1600928412.76
2001757.0,1600928412.802
2001685.0,1600928412.838
2002300.0,1600928412.879
2002384.0,1600928412.92
2001728.0,1600928412.959
2001076.0,1600928413.0
2001417.0,1600928413.041
2002026.0,1600928413.08
2002948.0,1600928413.12
2004543.0,1600928413.162
2006449.0,1600928413.199
2008254.0,1600928413.239
2010417.0,1600928413.28
2012315.0,1600928413.319
2014167.0,1600928413.36
2016190.0,1600928413.401
2018816.0,1600928413.44
2020916.0,1600928413.48
2023548.0,1600928413.522
2025263.0,1600928413.559
2021450.0,1600928413.6
2014523.0,1600928413.64
2009004.0,1600928413.679
2005718.0,1600928413.72
2004007.0,1600928413.761
2003098.0,1600928413.801
2003231.0,1600928413.84
2003093.0,1600928413.882
2002199.0,1600928413.919
2001714.0,1600928413.959
2001175.0,1600928414.001
2001725.0,1600928414.039
2002467.0,1600928414.08
2004036.0,1600928414.121
2005480.0,1600928414.16
2007323.0,1600928414.201
2009075.0,1600928414.242
2011168.0,1600928414.279
2013318.0,1600928414.319
2015251.0,1600928414.36
2017367.0,1600928414.4
2019544.0,1600928414.44
2024614.0,1600928414.52
2022003.0,1600928414.481
2025194.0,1600928414.561
2011009.0,1600928414.639
2019320.0,1600928414.603
2001955.0,1600928414.721
2005318.0,1600928414.679
1998791.0,1600928414.801
1998274.0,1600928414.841
1997863.0,1600928414.88
1999773.0,1600928414.76
1996660.0,1600928414.921
1995363.0,1600928415.0
1995518.0,1600928414.96
1995540.0,1600928415.044
1997559.0,1600928415.12
1996316.0,1600928415.081
2001363.0,1600928415.202
1999644.0,1600928415.161
2003318.0,1600928415.241
2005228.0,1600928415.279
2007302.0,1600928415.321
2009240.0,1600928415.36
2011723.0,1600928415.401
2014157.0,1600928415.441
2016768.0,1600928415.48
2009122.0,1600928415.562
2016142.0,1600928415.521
2000806.0,1600928415.602
1994999.0,1600928415.639
1991754.0,1600928415.681
1989884.0,1600928415.72
1989455.0,1600928415.76
1989512.0,1600928415.802
1989296.0,1600928415.841
1988322.0,1600928415.881
1987294.0,1600928415.922
1987196.0,1600928415.961
1987649.0,1600928416.0
1988968.0,1600928416.041
1990752.0,1600928416.08
1992464.0,1600928416.12
1994431.0,1600928416.161
1996680.0,1600928416.201
1999124.0,1600928416.241
2001326.0,1600928416.282
2003654.0,1600928416.321
2006042.0,1600928416.36
2008683.0,1600928416.401
2006399.0,1600928416.439
1998454.0,1600928416.479
1990275.0,1600928416.52
1985373.0,1600928416.559
1982535.0,1600928416.601
1981294.0,1600928416.641
1981604.0,1600928416.68
1981980.0,1600928416.721
1981810.0,1600928416.762
1980595.0,1600928416.802
1979881.0,1600928416.842
1979876.0,1600928416.881
1980869.0,1600928416.92
1981711.0,1600928416.96
1983376.0,1600928417.002
1985367.0,1600928417.04
1987418.0,1600928417.081
1989628.0,1600928417.122
1991674.0,1600928417.161
1994082.0,1600928417.202
1996563.0,1600928417.241
1998926.0,1600928417.28
1997912.0,1600928417.32
1991134.0,1600928417.362
1983453.0,1600928417.402
1978345.0,1600928417.441
1975887.0,1600928417.482
1975368.0,1600928417.522
1975817.0,1600928417.562
1977032.0,1600928417.602
1977530.0,1600928417.64
1977159.0,1600928417.68
1976693.0,1600928417.722
1976733.0,1600928417.761
1977857.0,1600928417.802
1979690.0,1600928417.843
1981902.0,1600928417.882
1984463.0,1600928417.92
1986924.0,1600928417.961
1989569.0,1600928418.001
1992027.0,1600928418.041
1994646.0,1600928418.082
1997560.0,1600928418.121
1998335.0,1600928418.161
1992578.0,1600928418.204
1985573.0,1600928418.242
1980421.0,1600928418.28
1978175.0,1600928418.321
1977264.0,1600928418.36
1978124.0,1600928418.402
1979386.0,1600928418.442
1980169.0,1600928418.481
1980119.0,1600928418.522
1979860.0,1600928418.563
1980446.0,1600928418.603
1981594.0,1600928418.64
1983254.0,1600928418.682
1985476.0,1600928418.721
1987877.0,1600928418.761
1990941.0,1600928418.803
1993455.0,1600928418.841
1996084.0,1600928418.882
1998861.0,1600928418.923
2001575.0,1600928418.961
2003704.0,1600928419.0
1999452.0,1600928419.041
1992583.0,1600928419.08
1987038.0,1600928419.121
1983114.0,1600928419.202
1983840.0,1600928419.283
1984541.0,1600928419.322
1984242.0,1600928419.162
1982941.0,1600928419.241
1984877.0,1600928419.362
1985020.0,1600928419.404
1985407.0,1600928419.442
1986635.0,1600928419.481
1988288.0,1600928419.522
1990215.0,1600928419.561
1992631.0,1600928419.602
1995297.0,1600928419.643
1998148.0,1600928419.682
2001054.0,1600928419.722
2003941.0,1600928419.763
2006874.0,1600928419.803
2009882.0,1600928419.841
2011100.0,1600928419.882
2005907.0,1600928419.921
1999708.0,1600928419.962
1995591.0,1600928420.004
1993924.0,1600928420.042
1993462.0,1600928420.082
1993847.0,1600928420.124
1994707.0,1600928420.163
1995256.0,1600928420.202
1995461.0,1600928420.242
1995845.0,1600928420.281
1996806.0,1600928420.322
1998169.0,1600928420.363
1999979.0,1600928420.403
2002375.0,1600928420.442
2004395.0,1600928420.484
2007325.0,1600928420.523
2009512.0,1600928420.561
2012387.0,1600928420.603
2014922.0,1600928420.641
2017701.0,1600928420.682
2020491.0,1600928420.723
2021163.0,1600928420.762
2016251.0,1600928420.803
2010474.0,1600928420.844
2006499.0,1600928420.881
2005171.0,1600928420.921
2004883.0,1600928420.962
2005382.0,1600928421.002
2006252.0,1600928421.042
2006918.0,1600928421.083
2006684.0,1600928421.124
2007030.0,1600928421.164
2007623.0,1600928421.206
2008986.0,1600928421.245
2010452.0,1600928421.285
2012402.0,1600928421.326
2014731.0,1600928421.365
2017146.0,1600928421.406
2019471.0,1600928421.446
2021887.0,1600928421.485
2024115.0,1600928421.525
2031193.0,1600928421.643
2028191.0,1600928421.684
2022140.0,1600928421.724
2026683.0,1600928421.566
2017037.0,1600928421.764
2014692.0,1600928421.806
2013818.0,1600928421.844
2013882.0,1600928421.885
2014436.0,1600928421.926
2014930.0,1600928421.965
2014747.0,1600928422.006
2014319.0,1600928422.047
2028923.0,1600928421.603
2015198.0,1600928422.124
2016661.0,1600928422.166
2019769.0,1600928422.245
2018061.0,1600928422.206
2014433.0,1600928422.086
2021729.0,1600928422.286
2023754.0,1600928422.325
2025708.0,1600928422.366
2028061.0,1600928422.408
2030017.0,1600928422.446
2032113.0,1600928422.484
2034438.0,1600928422.526
2035655.0,1600928422.565
2031831.0,1600928422.606
2025369.0,1600928422.646
2020013.0,1600928422.686
2017282.0,1600928422.726
2015766.0,1600928422.767
2015729.0,1600928422.807
2016203.0,1600928422.845
2015551.0,1600928422.925
2014781.0,1600928422.965
2016118.0,1600928422.886
2014461.0,1600928423.008
2015114.0,1600928423.046
2016079.0,1600928423.086
2017768.0,1600928423.128
2019188.0,1600928423.167
2020785.0,1600928423.206
2022572.0,1600928423.246
2024480.0,1600928423.285
2026162.0,1600928423.326
2028170.0,1600928423.367
2030421.0,1600928423.407
2032563.0,1600928423.446
2033990.0,1600928423.488
2030550.0,1600928423.525
2024094.0,1600928423.565
2018069.0,1600928423.607
2014874.0,1600928423.645
2013280.0,1600928423.686
2012821.0,1600928423.727
2012877.0,1600928423.766
2012967.0,1600928423.807
2011861.0,1600928423.848
2010784.0,1600928423.885
2010326.0,1600928423.925
2010478.0,1600928423.966
2011272.0,1600928424.006
2012528.0,1600928424.046
2013875.0,1600928424.086
2015720.0,1600928424.123
2017136.0,1600928424.164
2019209.0,1600928424.206
2020935.0,1600928424.245
2022933.0,1600928424.285
2024896.0,1600928424.326
2026944.0,1600928424.365
2027708.0,1600928424.406
2021607.0,1600928424.447
2013625.0,1600928424.486
2007559.0,1600928424.527
2001871.0,1600928424.608
2000798.0,1600928424.686
1999866.0,1600928424.726
1998295.0,1600928424.766
1996825.0,1600928424.808
2001050.0,1600928424.645
2004060.0,1600928424.568
1996312.0,1600928424.846
1996546.0,1600928424.887
1997201.0,1600928424.928
1998312.0,1600928424.967
1999887.0,1600928425.006
2001566.0,1600928425.047
2003216.0,1600928425.086
2006277.0,1600928425.167
2010184.0,1600928425.247
2004620.0,1600928425.126
2008429.0,1600928425.207
2012233.0,1600928425.288
2013114.0,1600928425.325
2006679.0,1600928425.366
1997671.0,1600928425.407
1990510.0,1600928425.446
1986499.0,1600928425.486
1984146.0,1600928425.528
1982946.0,1600928425.567
1982497.0,1600928425.608
1981479.0,1600928425.648
1979929.0,1600928425.685
1978369.0,1600928425.726
1977569.0,1600928425.767
1978046.0,1600928425.807
1978586.0,1600928425.847
1980096.0,1600928425.888
1981223.0,1600928425.927
1982805.0,1600928425.967
1984799.0,1600928426.009
1991367.0,1600928426.127
1993706.0,1600928426.166
1989277.0,1600928426.086
1998642.0,1600928426.248
1986762.0,1600928426.045
1995957.0,1600928426.207
1999083.0,1600928426.287
1985224.0,1600928426.369
1977020.0,1600928426.446
1976109.0,1600928426.526
1976558.0,1600928426.567
1976390.0,1600928426.609
1979746.0,1600928426.406
1975970.0,1600928426.487
1993192.0,1600928426.327
1976055.0,1600928426.646
1975452.0,1600928426.684
1975965.0,1600928426.725
1976849.0,1600928426.764
1978673.0,1600928426.804
1980568.0,1600928426.846
1982679.0,1600928426.885
1985273.0,1600928426.926
1987611.0,1600928426.967
1990252.0,1600928427.007
1992805.0,1600928427.047
1995565.0,1600928427.088
1998199.0,1600928427.127
2000999.0,1600928427.167
2004159.0,1600928427.209
2007144.0,1600928427.248
2005751.0,1600928427.286
2001235.0,1600928427.327
1997362.0,1600928427.366
1995886.0,1600928427.407
1995917.0,1600928427.448
1996707.0,1600928427.487
1998323.0,1600928427.528
1999773.0,1600928427.569
2000624.0,1600928427.609
2001145.0,1600928427.646
2002094.0,1600928427.687
2003338.0,1600928427.727
2005762.0,1600928427.767
2008055.0,1600928427.809
2010607.0,1600928427.847
2013414.0,1600928427.888
2019127.0,1600928427.968
2016296.0,1600928427.929
2024722.0,1600928428.048
2021982.0,1600928428.007
2030179.0,1600928428.127
2032989.0,1600928428.168
2036055.0,1600928428.208
2027169.0,1600928428.087
2034833.0,1600928428.248
2028149.0,1600928428.328
2031058.0,1600928428.289
2027196.0,1600928428.367
2027863.0,1600928428.409
2029277.0,1600928428.447
2031582.0,1600928428.487
2033494.0,1600928428.529
2033882.0,1600928428.568
2033832.0,1600928428.609
2033191.0,1600928428.649
2033679.0,1600928428.686
2036211.0,1600928428.727
2040030.0,1600928428.768
2043532.0,1600928428.808
2047244.0,1600928428.848
2054282.0,1600928428.969
2052038.0,1600928428.928
2049987.0,1600928428.889
2056515.0,1600928429.009
2060568.0,1600928429.047
2067159.0,1600928429.087
2074516.0,1600928429.128
2081048.0,1600928429.168
2086203.0,1600928429.207
2089302.0,1600928429.246
2091460.0,1600928429.286
2093997.0,1600928429.326
2097669.0,1600928429.368
2102488.0,1600928429.407
2108753.0,1600928429.447
2114269.0,1600928429.488
2120189.0,1600928429.528
2125744.0,1600928429.568
2130240.0,1600928429.61
2138605.0,1600928429.689
2150241.0,1600928429.808
2134689.0,1600928429.648
2146425.0,1600928429.767
2142307.0,1600928429.73
2153736.0,1600928429.849
2157562.0,1600928429.888
2161247.0,1600928429.928
2164796.0,1600928429.97
2171829.0,1600928430.049
2175871.0,1600928430.127
2168138.0,1600928430.009
2174934.0,1600928430.168
2174124.0,1600928430.092
2172461.0,1600928430.21
2169988.0,1600928430.248
2168331.0,1600928430.289
2166800.0,1600928430.367
2167525.0,1600928430.33
2166615.0,1600928430.408
2166621.0,1600928430.449
2165319.0,1600928430.488
2163437.0,1600928430.569
2162121.0,1600928430.609
2161071.0,1600928430.649
2159874.0,1600928430.69
2164531.0,1600928430.528
2157662.0,1600928430.809
2158225.0,1600928430.768
2156188.0,1600928430.888
2154437.0,1600928430.969
2157029.0,1600928430.848
2159020.0,1600928430.727
2155188.0,1600928430.93
2152685.0,1600928431.048
2150820.0,1600928431.088
2146901.0,1600928431.128
2141202.0,1600928431.169
2134308.0,1600928431.209
2130737.0,1600928431.249
2127825.0,1600928431.29
2126934.0,1600928431.329
2126279.0,1600928431.368
2125519.0,1600928431.448
2125591.0,1600928431.409
2153175.0,1600928431.01
2126743.0,1600928431.488
2129576.0,1600928431.53
2132195.0,1600928431.569
2135877.0,1600928431.61
2138765.0,1600928431.65
2140949.0,1600928431.688
2142308.0,1600928431.728
2143645.0,1600928431.768
2145846.0,1600928431.808
2148260.0,1600928431.847
2151843.0,1600928431.927
2154028.0,1600928431.968
2149781.0,1600928431.888
2156244.0,1600928432.01
2148819.0,1600928432.089
2153992.0,1600928432.049
2143105.0,1600928432.13
2140049.0,1600928432.169
2139513.0,1600928432.249
2140966.0,1600928432.329
2140549.0,1600928432.288
2141096.0,1600928432.37
2139331.0,1600928432.208
2141250.0,1600928432.41
2141736.0,1600928432.449
2142938.0,1600928432.491
2143938.0,1600928432.528
2145623.0,1600928432.568
2147539.0,1600928432.61
2149801.0,1600928432.649
2152168.0,1600928432.689
2154342.0,1600928432.73
2157039.0,1600928432.769
2159056.0,1600928432.81
2161395.0,1600928432.851
2163455.0,1600928432.888
2165831.0,1600928432.928
2165823.0,1600928432.97
2161498.0,1600928433.009
2156598.0,1600928433.049
2152808.0,1600928433.094
2151232.0,1600928433.133
2151413.0,1600928433.172
2152239.0,1600928433.211
2153153.0,1600928433.25
2153299.0,1600928433.289
2152821.0,1600928433.328
2152828.0,1600928433.367
2153114.0,1600928433.406
2153817.0,1600928433.445
2155104.0,1600928433.484
2157179.0,1600928433.523
2158496.0,1600928433.562
2160344.0,1600928433.601
2162350.0,1600928433.64
2163859.0,1600928433.679
2165343.0,1600928433.718
2166464.0,1600928433.757
2167910.0,1600928433.796
2168846.0,1600928433.835
2164704.0,1600928433.874
2157331.0,1600928433.913
2151142.0,1600928433.952
2147203.0,1600928433.991
2146518.0,1600928434.03
2146883.0,1600928434.069
2147654.0,1600928434.108
2147122.0,1600928434.147
2145735.0,1600928434.186
2144684.0,1600928434.225
2143871.0,1600928434.264
2143971.0,1600928434.304
2145413.0,1600928434.344
2147682.0,1600928434.384
2150459.0,1600928434.424
2153176.0,1600928434.464
2155400.0,1600928434.504
2158805.0,1600928434.584
2157269.0,1600928434.544
2160406.0,1600928434.624
2162633.0,1600928434.664
2163497.0,1600928434.704
2158171.0,1600928434.744
2148315.0,1600928434.784
2139805.0,1600928434.824
2134831.0,1600928434.864
2132452.0,1600928434.904
2131170.0,1600928434.944
2131657.0,1600928434.984
2130862.0,1600928435.064
2129341.0,1600928435.104
2128626.0,1600928435.144
2129176.0,1600928435.184
2131934.0,1600928435.024
2130036.0,1600928435.224
2131075.0,1600928435.264
2133235.0,1600928435.304
2135931.0,1600928435.344
2141079.0,1600928435.424
2138429.0,1600928435.384
2143696.0,1600928435.464
2146130.0,1600928435.504
2148968.0,1600928435.544
2151335.0,1600928435.584
2148921.0,1600928435.624
2140617.0,1600928435.664
2132170.0,1600928435.704
2124705.0,1600928435.784
2124094.0,1600928435.824
2124828.0,1600928435.864
2125282.0,1600928435.904
2127124.0,1600928435.744
2123595.0,1600928435.984
2124567.0,1600928435.944
2123264.0,1600928436.024
2122514.0,1600928436.064
2123014.0,1600928436.104
2124270.0,1600928436.144
2128406.0,1600928436.224
2130518.0,1600928436.264
2132499.0,1600928436.304
2126232.0,1600928436.184
2135662.0,1600928436.384
2134572.0,1600928436.344
2139393.0,1600928436.504
2137276.0,1600928436.424
2139067.0,1600928436.464
2131649.0,1600928436.544
2119009.0,1600928436.584
2108277.0,1600928436.624
2102410.0,1600928436.664
2100263.0,1600928436.704
2099812.0,1600928436.744
2100381.0,1600928436.784
2100294.0,1600928436.824
2098513.0,1600928436.864
2096573.0,1600928436.904
2094727.0,1600928436.944
2094094.0,1600928436.984
2094315.0,1600928437.024
2094433.0,1600928437.064
2095558.0,1600928437.104
2096567.0,1600928437.144
2098117.0,1600928437.184
2099202.0,1600928437.224
2100411.0,1600928437.264
2101669.0,1600928437.304
2103539.0,1600928437.344
2105365.0,1600928437.384
2106618.0,1600928437.424
2098967.0,1600928437.464
2084871.0,1600928437.504
2072017.0,1600928437.544
2064135.0,1600928437.584
2059823.0,1600928437.624
2057342.0,1600928437.664
2056669.0,1600928437.704
2055371.0,1600928437.744
2052698.0,1600928437.784
2049074.0,1600928437.824
2046644.0,1600928437.864
2045609.0,1600928437.904
2045467.0,1600928437.944
2046351.0,1600928437.984
2047901.0,1600928438.024
2049481.0,1600928438.064
2051472.0,1600928438.104
2053251.0,1600928438.144
2055046.0,1600928438.184
2056841.0,1600928438.224
2058829.0,1600928438.264
2060831.0,1600928438.304
2063551.0,1600928438.344
2063443.0,1600928438.384
2051335.0,1600928438.424
2035317.0,1600928438.464
2023682.0,1600928438.504
2017383.0,1600928438.544
2014452.0,1600928438.584
2013351.0,1600928438.624
2013236.0,1600928438.664
2011664.0,1600928438.704
2008880.0,1600928438.744
2005902.0,1600928438.784
2004597.0,1600928438.824
2004275.0,1600928438.864
2004607.0,1600928438.904
2005433.0,1600928438.944
2006774.0,1600928438.984
2008645.0,1600928439.024
2010688.0,1600928439.064
2012149.0,1600928439.104
2013990.0,1600928439.144
2016096.0,1600928439.184
2017893.0,1600928439.224
2020238.0,1600928439.264
2024325.0,1600928439.304
2026969.0,1600928439.344
2017652.0,1600928439.384
2000660.0,1600928439.424
1986583.0,1600928439.464
1978157.0,1600928439.504
1974332.0,1600928439.544
1971818.0,1600928439.584
1971308.0,1600928439.624
1970569.0,1600928439.664
1968567.0,1600928439.704
1966416.0,1600928439.744
1965045.0,1600928439.784
1965028.0,1600928439.824
1966518.0,1600928439.864
1968370.0,1600928439.904
1971012.0,1600928439.944
1973599.0,1600928439.984
1978844.0,1600928440.064
1976296.0,1600928440.024
1981605.0,1600928440.104
1984381.0,1600928440.144
1987760.0,1600928440.184
1990932.0,1600928440.224
1994770.0,1600928440.264
1998649.0,1600928440.304
2001351.0,1600928440.344
1991792.0,1600928440.384
1975798.0,1600928440.424
1962358.0,1600928440.464
1955358.0,1600928440.504
1951844.0,1600928440.544
1950054.0,1600928440.584
1950144.0,1600928440.624
1950073.0,1600928440.664
1948453.0,1600928440.704
1946289.0,1600928440.744
1944963.0,1600928440.784
1945584.0,1600928440.824
1946958.0,1600928440.864
1949372.0,1600928440.904
1952797.0,1600928440.944
1956229.0,1600928440.984
1959655.0,1600928441.024
1963251.0,1600928441.064
1967128.0,1600928441.104
1971005.0,1600928441.144
1975237.0,1600928441.184
1979742.0,1600928441.224
1984450.0,1600928441.264
1989209.0,1600928441.304
1993853.0,1600928441.344
1988462.0,1600928441.384
1975286.0,1600928441.424
1963890.0,1600928441.464
1958329.0,1600928441.504
1956514.0,1600928441.544
1957175.0,1600928441.584
1959584.0,1600928441.624
1961575.0,1600928441.664
1961543.0,1600928441.704
1960422.0,1600928441.744
1960374.0,1600928441.784
1961664.0,1600928441.824
1964129.0,1600928441.864
1967597.0,1600928441.904
1971325.0,1600928441.944
1975508.0,1600928441.984
1979484.0,1600928442.024
1983601.0,1600928442.064
1987408.0,1600928442.104
1990927.0,1600928442.144
1994836.0,1600928442.184
1998584.0,1600928442.224
2002510.0,1600928442.264
2006501.0,1600928442.304
2002844.0,1600928442.344
1987822.0,1600928442.384
1973441.0,1600928442.424
1964596.0,1600928442.464
1960557.0,1600928442.504
1958794.0,1600928442.544
1958975.0,1600928442.584
1958885.0,1600928442.624
1957648.0,1600928442.664
1955051.0,1600928442.704
1953345.0,1600928442.744
1953340.0,1600928442.784
1954384.0,1600928442.824
1956523.0,1600928442.864
1958941.0,1600928442.904
1961981.0,1600928442.944
1964992.0,1600928442.984
1967852.0,1600928443.024
1970866.0,1600928443.064
1974253.0,1600928443.104
1978057.0,1600928443.144
1982292.0,1600928443.184
1987120.0,1600928443.224
1992118.0,1600928443.264
1992615.0,1600928443.304
1980092.0,1600928443.344
1966002.0,1600928443.384
1956461.0,1600928443.424
1951637.0,1600928443.464
1948594.0,1600928443.504
1947319.0,1600928443.544
1946974.0,1600928443.584
1945929.0,1600928443.624
1944068.0,1600928443.664
1942523.0,1600928443.704
1943071.0,1600928443.744
1944466.0,1600928443.784
1946591.0,1600928443.824
1949074.0,1600928443.864
1952185.0,1600928443.904
1955485.0,1600928443.944
1958980.0,1600928443.984
1962521.0,1600928444.024
1966294.0,1600928444.064
1969990.0,1600928444.104
1973756.0,1600928444.144
1977940.0,1600928444.184
1982461.0,1600928444.224
1987048.0,1600928444.264
1984766.0,1600928444.304
1974675.0,1600928444.344
1965050.0,1600928444.384
1959473.0,1600928444.424
1956958.0,1600928444.464
1955817.0,1600928444.504
1955945.0,1600928444.544
1956413.0,1600928444.584
1956241.0,1600928444.624
1955567.0,1600928444.664
1955875.0,1600928444.704
1957531.0,1600928444.744
1960059.0,1600928444.784
1963117.0,1600928444.824
1966295.0,1600928444.864
1969596.0,1600928444.904
1972960.0,1600928444.944
1975958.0,1600928444.984
1979660.0,1600928445.024
1983001.0,1600928445.064
1986686.0,1600928445.109
1990699.0,1600928445.149
1994667.0,1600928445.191
1998917.0,1600928445.23
2003863.0,1600928445.27
2007711.0,1600928445.311
2006096.0,1600928445.35
1998761.0,1600928445.391
1992663.0,1600928445.431
1989891.0,1600928445.47
1988770.0,1600928445.51
1989100.0,1600928445.551
1990735.0,1600928445.591
1992019.0,1600928445.631
1992977.0,1600928445.672
1993208.0,1600928445.709
1994581.0,1600928445.749
1997228.0,1600928445.791
2000346.0,1600928445.83
2003433.0,1600928445.87
2006948.0,1600928445.912
2010503.0,1600928445.951
2013807.0,1600928445.992
2017258.0,1600928446.03
2020889.0,1600928446.07
2025015.0,1600928446.11
2028879.0,1600928446.151
2040846.0,1600928446.272
2032700.0,1600928446.191
2036633.0,1600928446.231
2048894.0,1600928446.349
2044817.0,1600928446.311
2051516.0,1600928446.391
2048064.0,1600928446.43
2042233.0,1600928446.47
2038019.0,1600928446.511
2036397.0,1600928446.551
2037670.0,1600928446.671
2038173.0,1600928446.709
2037647.0,1600928446.751
2036628.0,1600928446.632
2036024.0,1600928446.592
2037504.0,1600928446.791
2038358.0,1600928446.83
2040025.0,1600928446.872
2041919.0,1600928446.911
2044277.0,1600928446.951
2046652.0,1600928446.993
2048988.0,1600928447.03
2050760.0,1600928447.07
2052737.0,1600928447.111
2055037.0,1600928447.15
2057329.0,1600928447.191
2060170.0,1600928447.231
2062968.0,1600928447.27
2066099.0,1600928447.31
2069053.0,1600928447.351
2072118.0,1600928447.391
2075436.0,1600928447.431
2066263.0,1600928447.511
2073468.0,1600928447.472
2059374.0,1600928447.552
2055329.0,1600928447.592
2053284.0,1600928447.63
2051965.0,1600928447.67
2051928.0,1600928447.712
2051544.0,1600928447.792
2051952.0,1600928447.751
2051119.0,1600928447.833
2051081.0,1600928447.872
2051741.0,1600928447.91
2052876.0,1600928447.951
2054458.0,1600928447.991
2056125.0,1600928448.031
2057697.0,1600928448.072
2059207.0,1600928448.111
2061286.0,1600928448.151
2063195.0,1600928448.193
2065182.0,1600928448.232
2067287.0,1600928448.27
2069418.0,1600928448.311
2071718.0,1600928448.351
2073905.0,1600928448.392
2076196.0,1600928448.432
2079312.0,1600928448.471
2080719.0,1600928448.512
2074680.0,1600928448.553
2065115.0,1600928448.591
2057435.0,1600928448.63
2052640.0,1600928448.672
2048866.0,1600928448.711
2046143.0,1600928448.751
2044819.0,1600928448.793
2043238.0,1600928448.832
2041419.0,1600928448.872
2039813.0,1600928448.911
2038608.0,1600928448.95
2038404.0,1600928448.991
2038979.0,1600928449.032
2040356.0,1600928449.071
2042133.0,1600928449.112
2043792.0,1600928449.153
2045226.0,1600928449.193
2046995.0,1600928449.23
2049153.0,1600928449.272
2050932.0,1600928449.311
2053463.0,1600928449.351
2056085.0,1600928449.393
2059186.0,1600928449.432
2062609.0,1600928449.472
2066835.0,1600928449.513
2070913.0,1600928449.552
2073447.0,1600928449.591
2069317.0,1600928449.632
2062047.0,1600928449.674
2056288.0,1600928449.71
2053587.0,1600928449.752
2052073.0,1600928449.791
2051114.0,1600928449.831
2050970.0,1600928449.872
2050749.0,1600928449.911
2050194.0,1600928449.952
2049312.0,1600928449.994
2049050.0,1600928450.032
2049957.0,1600928450.072
2051436.0,1600928450.112
2053525.0,1600928450.151
2055212.0,1600928450.192
2057342.0,1600928450.232
2059650.0,1600928450.272
2061983.0,1600928450.312
2064256.0,1600928450.353
2066595.0,1600928450.393
2069293.0,1600928450.433
2071795.0,1600928450.472
2074524.0,1600928450.511
2077914.0,1600928450.551
2080975.0,1600928450.593
2083584.0,1600928450.632
2084703.0,1600928450.672
2079817.0,1600928450.713
2073390.0,1600928450.753
2068530.0,1600928450.792
2065850.0,1600928450.832
2064373.0,1600928450.871
2063482.0,1600928450.912
2063553.0,1600928450.953
2063018.0,1600928450.993
2062188.0,1600928451.033
2061467.0,1600928451.074
2061435.0,1600928451.111
2061836.0,1600928451.151
2062498.0,1600928451.193
2063510.0,1600928451.232
2064941.0,1600928451.272
2066678.0,1600928451.313
2067975.0,1600928451.353
2069444.0,1600928451.394
2070800.0,1600928451.432
2072845.0,1600928451.471
2074853.0,1600928451.512
2076785.0,1600928451.553
2078728.0,1600928451.593
2081049.0,1600928451.632
2083222.0,1600928451.674
2085771.0,1600928451.713
2087700.0,1600928451.753
2084702.0,1600928451.793
2079508.0,1600928451.832
2075014.0,1600928451.872
2073107.0,1600928451.913
2072285.0,1600928451.952
2072343.0,1600928451.993
2073473.0,1600928452.034
2073597.0,1600928452.073
2073173.0,1600928452.111
2072844.0,1600928452.153
2072954.0,1600928452.193
2073571.0,1600928452.232
2075037.0,1600928452.273
2076621.0,1600928452.312
2078230.0,1600928452.352
2080360.0,1600928452.394
2082188.0,1600928452.432
2084385.0,1600928452.473
2086666.0,1600928452.514
2088901.0,1600928452.553
2091539.0,1600928452.594
2094260.0,1600928452.632
2097182.0,1600928452.672
2099975.0,1600928452.712
2102417.0,1600928452.753
2105549.0,1600928452.793
2105206.0,1600928452.833
2101055.0,1600928452.874
2096047.0,1600928452.913
2093221.0,1600928452.952
2091538.0,1600928452.994
2090917.0,1600928453.032
2090985.0,1600928453.072
2091383.0,1600928453.114
2091226.0,1600928453.153
2090701.0,1600928453.194
2090359.0,1600928453.234
2090825.0,1600928453.274
2091888.0,1600928453.312
2093458.0,1600928453.353
2095188.0,1600928453.393
2096928.0,1600928453.432
2098971.0,1600928453.474
2100756.0,1600928453.513
2102874.0,1600928453.553
2104686.0,1600928453.595
2106724.0,1600928453.634
2109141.0,1600928453.672
2111153.0,1600928453.713
2113199.0,1600928453.752
2115522.0,1600928453.793
2118052.0,1600928453.834
2119673.0,1600928453.873
2116073.0,1600928453.914
2108911.0,1600928453.955
2101773.0,1600928453.993
2097281.0,1600928454.032
2094424.0,1600928454.073
2092313.0,1600928454.113
2091297.0,1600928454.153
2090785.0,1600928454.195
2089142.0,1600928454.234
2087311.0,1600928454.274
2086416.0,1600928454.313
2085541.0,1600928454.352
2085797.0,1600928454.393
2086689.0,1600928454.434
2087633.0,1600928454.473
2089011.0,1600928454.513
2090308.0,1600928454.555
2091469.0,1600928454.595
2092737.0,1600928454.632
2094605.0,1600928454.673
2096361.0,1600928454.713
2098188.0,1600928454.753
2099968.0,1600928454.797
2102328.0,1600928454.835
2104736.0,1600928454.875
2107132.0,1600928454.913
2108134.0,1600928454.953
2102412.0,1600928454.994
2093199.0,1600928455.034
2084878.0,1600928455.073
2076946.0,1600928455.155
2079756.0,1600928455.114
2075162.0,1600928455.195
2074449.0,1600928455.232
2073832.0,1600928455.274
2072302.0,1600928455.313
2070588.0,1600928455.353
2069692.0,1600928455.395
2069977.0,1600928455.433
2071241.0,1600928455.474
2072730.0,1600928455.515
2074418.0,1600928455.554
2076226.0,1600928455.593
2078331.0,1600928455.634
2080330.0,1600928455.673
2082133.0,1600928455.713
2084357.0,1600928455.754
2086581.0,1600928455.794
2089279.0,1600928455.834
2091957.0,1600928455.875
2094443.0,1600928455.913
2097310.0,1600928455.953
2100151.0,1600928455.995
2102241.0,1600928456.033
2096610.0,1600928456.073
2086428.0,1600928456.115
2077134.0,1600928456.154
2071694.0,1600928456.195
2068713.0,1600928456.235
2067089.0,1600928456.275
2067074.0,1600928456.313
2066290.0,1600928456.354
2064788.0,1600928456.394
2062127.0,1600928456.433
2060673.0,1600928456.475
2060188.0,1600928456.514
2060722.0,1600928456.554
2061808.0,1600928456.596
2063040.0,1600928456.635
2064927.0,1600928456.673
2066659.0,1600928456.714
2068494.0,1600928456.753
2070102.0,1600928456.794
2071849.0,1600928456.835
2074061.0,1600928456.874
2076086.0,1600928456.915
2078342.0,1600928456.956
2080616.0,1600928456.994
2083504.0,1600928457.033
2086257.0,1600928457.074
2086857.0,1600928457.106
2078436.0,1600928457.146
2066245.0,1600928457.187
2057009.0,1600928457.226
2048783.0,1600928457.307
2051581.0,1600928457.266
2047786.0,1600928457.346
2048349.0,1600928457.387
2047964.0,1600928457.427
2046163.0,1600928457.466
2043510.0,1600928457.506
2041934.0,1600928457.547
2041658.0,1600928457.588
2042338.0,1600928457.628
2043674.0,1600928457.668
2045582.0,1600928457.707
2047520.0,1600928457.748
2049659.0,1600928457.79
2051596.0,1600928457.828
2053722.0,1600928457.868
2056098.0,1600928457.91
2058937.0,1600928457.949
2061830.0,1600928457.988
2064609.0,1600928458.028
2067823.0,1600928458.067
2070615.0,1600928458.107
2072002.0,1600928458.148
2062805.0,1600928458.188
2048752.0,1600928458.227
2036480.0,1600928458.268
2029009.0,1600928458.307
2024987.0,1600928458.348
2023214.0,1600928458.389
2022287.0,1600928458.428
2020889.0,1600928458.468
2018273.0,1600928458.509
2015835.0,1600928458.548
2014415.0,1600928458.589
2013934.0,1600928458.629
2013977.0,1600928458.668
2014346.0,1600928458.709
2015505.0,1600928458.75
2017068.0,1600928458.79
2018546.0,1600928458.829
2019923.0,1600928458.871
2021222.0,1600928458.908
2022742.0,1600928458.948
2024470.0,1600928458.99
2026219.0,1600928459.029
2028744.0,1600928459.069
2030850.0,1600928459.11
2033346.0,1600928459.149
2033744.0,1600928459.19
2022273.0,1600928459.229
2005954.0,1600928459.268
1992516.0,1600928459.308
1984516.0,1600928459.35
1979297.0,1600928459.39
1975813.0,1600928459.429
1973917.0,1600928459.47
1970601.0,1600928459.51
1966230.0,1600928459.55
1961851.0,1600928459.59
1959254.0,1600928459.628
1958367.0,1600928459.669
1958346.0,1600928459.71
1958962.0,1600928459.749
1959979.0,1600928459.79
1961413.0,1600928459.831
1962757.0,1600928459.87
1964060.0,1600928459.91
1965975.0,1600928459.949
1967482.0,1600928459.988
1969660.0,1600928460.028
1971830.0,1600928460.069
1974270.0,1600928460.109
1976918.0,1600928460.148
1979669.0,1600928460.19
1974643.0,1600928460.229
1961061.0,1600928460.269
1947990.0,1600928460.31
1939638.0,1600928460.349
1934734.0,1600928460.39
1931507.0,1600928460.431
1929971.0,1600928460.47
1928660.0,1600928460.508
1926017.0,1600928460.55
1923130.0,1600928460.59
1921546.0,1600928460.629
1921533.0,1600928460.67
1922384.0,1600928460.71
1923989.0,1600928460.75
1925936.0,1600928460.792
1928486.0,1600928460.829
1930978.0,1600928460.869
1933473.0,1600928460.91
1936414.0,1600928460.949
1939096.0,1600928460.99
1942802.0,1600928461.031
1946041.0,1600928461.07
1949767.0,1600928461.11
1953969.0,1600928461.151
1958153.0,1600928461.191
1962220.0,1600928461.229
1960022.0,1600928461.27
1951037.0,1600928461.309
1942747.0,1600928461.35
1938088.0,1600928461.391
1935975.0,1600928461.43
1934857.0,1600928461.47
1935172.0,1600928461.512
1935279.0,1600928461.551
1935285.0,1600928461.59
1935048.0,1600928461.63
1935520.0,1600928461.669
1937063.0,1600928461.71
1939730.0,1600928461.751
1942603.0,1600928461.791
1945939.0,1600928461.831
1949686.0,1600928461.872
1953132.0,1600928461.909
1957006.0,1600928461.949
1960389.0,1600928461.991
1964280.0,1600928462.03
1968547.0,1600928462.07
1972769.0,1600928462.111
1977227.0,1600928462.15
1981604.0,1600928462.191
1986213.0,1600928462.232
1990576.0,1600928462.271
1995442.0,1600928462.309
1997046.0,1600928462.35
1992531.0,1600928462.39
1987579.0,1600928462.43
1985251.0,1600928462.471
1984808.0,1600928462.51
1985151.0,1600928462.55
1986281.0,1600928462.592
1987900.0,1600928462.631
1988902.0,1600928462.671
1989502.0,1600928462.712
1990719.0,1600928462.749
1992964.0,1600928462.79
1995565.0,1600928462.831
1998577.0,1600928462.87
2001595.0,1600928462.91
2004905.0,1600928462.952
2008251.0,1600928462.992
2011751.0,1600928463.031
2015220.0,1600928463.072
2019060.0,1600928463.11
2022661.0,1600928463.15
2026965.0,1600928463.192
2030718.0,1600928463.23
2034980.0,1600928463.271
2039140.0,1600928463.312
2042987.0,1600928463.351
2046644.0,1600928463.392
2050607.0,1600928463.432
2053644.0,1600928463.47
2050987.0,1600928463.51
2046253.0,1600928463.551
2043187.0,1600928463.591
2042515.0,1600928463.631
2042328.0,1600928463.672
2042407.0,1600928463.711
2043079.0,1600928463.751
2044110.0,1600928463.793
2044483.0,1600928463.83
2044856.0,1600928463.87
2045979.0,1600928463.911
2047880.0,1600928463.95
2050149.0,1600928463.991
2052714.0,1600928464.032
2054992.0,1600928464.071
2057487.0,1600928464.111
2060029.0,1600928464.153
2062646.0,1600928464.191
2065077.0,1600928464.23
2067993.0,1600928464.271
2071174.0,1600928464.311
2074136.0,1600928464.351
2077221.0,1600928464.393
2080282.0,1600928464.431
2083176.0,1600928464.471
2086652.0,1600928464.513
2089695.0,1600928464.552
2092980.0,1600928464.591
2095012.0,1600928464.631
2091779.0,1600928464.67
2086362.0,1600928464.711
2081783.0,1600928464.752
2079746.0,1600928464.792
2078499.0,1600928464.832
2077682.0,1600928464.873
2077423.0,1600928464.91
2077256.0,1600928464.95
2076602.0,1600928464.992
2075701.0,1600928465.031
2075723.0,1600928465.071
2076072.0,1600928465.112
2077496.0,1600928465.151
2078876.0,1600928465.192
2080719.0,1600928465.232
2082599.0,1600928465.271
2084242.0,1600928465.312
2086015.0,1600928465.353
2087726.0,1600928465.393
2089516.0,1600928465.43
2091434.0,1600928465.472
2094063.0,1600928465.511
2096972.0,1600928465.551
2099512.0,1600928465.593
2102018.0,1600928465.631
2104439.0,1600928465.672
2107324.0,1600928465.713
2110254.0,1600928465.752
2112083.0,1600928465.791
2108069.0,1600928465.832
2101877.0,1600928465.871
2096480.0,1600928465.911
2093484.0,1600928465.953
2091480.0,1600928465.992
2090777.0,1600928466.032
2090733.0,1600928466.073
2090192.0,1600928466.113
2088720.0,1600928466.151
2087557.0,1600928466.193
2086961.0,1600928466.231
2087340.0,1600928466.271
2088091.0,1600928466.313
2089314.0,1600928466.352
2090655.0,1600928466.393
2092524.0,1600928466.433
2094019.0,1600928466.472
2095519.0,1600928466.513
2097117.0,1600928466.552
2099185.0,1600928466.592
2101329.0,1600928466.631
2103391.0,1600928466.672
2105684.0,1600928466.712
2107943.0,1600928466.752
2110600.0,1600928466.794
2112878.0,1600928466.833
2115664.0,1600928466.873
2117853.0,1600928466.912
2116281.0,1600928466.951
2109162.0,1600928466.992
2100841.0,1600928467.033
2094972.0,1600928467.072
2091002.0,1600928467.112
2088761.0,1600928467.153
2086718.0,1600928467.193
2085954.0,1600928467.233
2084046.0,1600928467.272
2081907.0,1600928467.311
2080338.0,1600928467.352
2079795.0,1600928467.393
2079620.0,1600928467.432
2080123.0,1600928467.472
2081054.0,1600928467.513
2082028.0,1600928467.553
2083435.0,1600928467.594
2084569.0,1600928467.634
2085852.0,1600928467.673
2087297.0,1600928467.713
2088912.0,1600928467.752
2090755.0,1600928467.792
2092737.0,1600928467.832
2094917.0,1600928467.873
2097083.0,1600928467.912
2099406.0,1600928467.953
2101534.0,1600928467.995
2103873.0,1600928468.033
2103541.0,1600928468.073
2096034.0,1600928468.112
2087360.0,1600928468.152
2080702.0,1600928468.193
2076561.0,1600928468.233
2074158.0,1600928468.272
2072180.0,1600928468.313
2071174.0,1600928468.354
2069344.0,1600928468.394
2067304.0,1600928468.433
2065673.0,1600928468.472
2064650.0,1600928468.512
2064490.0,1600928468.552
2065494.0,1600928468.594
2066159.0,1600928468.632
2067385.0,1600928468.673
2068544.0,1600928468.714
2069928.0,1600928468.753
2071140.0,1600928468.794
2072446.0,1600928468.833
2073888.0,1600928468.872
2075901.0,1600928468.912
2078119.0,1600928468.953
2080248.0,1600928468.993
2082606.0,1600928469.033
2084985.0,1600928469.074
2087253.0,1600928469.118
2089690.0,1600928469.158
2087433.0,1600928469.2
2079744.0,1600928469.238
2071499.0,1600928469.278
2066113.0,1600928469.32
2063262.0,1600928469.359
2061208.0,1600928469.399
2060049.0,1600928469.44
2059138.0,1600928469.479
2057565.0,1600928469.519
2055456.0,1600928469.56
2054119.0,1600928469.598
2053796.0,1600928469.678
2054549.0,1600928469.718
2053364.0,1600928469.637
2055464.0,1600928469.758
2056789.0,1600928469.8
2058038.0,1600928469.838
2059190.0,1600928469.879
2060279.0,1600928469.918
2061861.0,1600928469.957
2063714.0,1600928469.998
2067690.0,1600928470.078
2065693.0,1600928470.039
2069877.0,1600928470.118
2072456.0,1600928470.159
2074973.0,1600928470.197
2077407.0,1600928470.236
2078661.0,1600928470.277
2073506.0,1600928470.317
2066149.0,1600928470.358
2060118.0,1600928470.399
2057098.0,1600928470.437
2055618.0,1600928470.477
2055152.0,1600928470.519
2055441.0,1600928470.558
2054812.0,1600928470.599
2053486.0,1600928470.639
2052199.0,1600928470.679
2051913.0,1600928470.719
2052437.0,1600928470.76
2053659.0,1600928470.8
2055173.0,1600928470.837
2056813.0,1600928470.879
2058666.0,1600928470.918
2060102.0,1600928470.958
2061720.0,1600928471.0
2063809.0,1600928471.039
2065926.0,1600928471.079
2067887.0,1600928471.12
2070150.0,1600928471.159
2072423.0,1600928471.198
2075086.0,1600928471.239
2077597.0,1600928471.278
2080224.0,1600928471.318
2079757.0,1600928471.36
2073922.0,1600928471.399
2067369.0,1600928471.439
2063105.0,1600928471.48
2060972.0,1600928471.519
2059896.0,1600928471.558
2059892.0,1600928471.6
2059433.0,1600928471.638
2058635.0,1600928471.678
2057870.0,1600928471.72
2056824.0,1600928471.759
2056889.0,1600928471.8
2057707.0,1600928471.84
2058973.0,1600928471.88
2060726.0,1600928471.918
2062247.0,1600928471.959
2064101.0,1600928471.999
2065853.0,1600928472.039
2067565.0,1600928472.08
2069472.0,1600928472.119
2071422.0,1600928472.159
2073765.0,1600928472.201
2076240.0,1600928472.24
2078626.0,1600928472.28
2081152.0,1600928472.319
2083645.0,1600928472.358
2083344.0,1600928472.399
2077200.0,1600928472.44
2069677.0,1600928472.479
2064193.0,1600928472.519
2061187.0,1600928472.56
2058822.0,1600928472.6
2056778.0,1600928472.64
2055701.0,1600928472.679
2054506.0,1600928472.718
2052641.0,1600928472.758
2051227.0,1600928472.8
2050574.0,1600928472.839
2051052.0,1600928472.879
2051676.0,1600928472.92
2052457.0,1600928472.959
2053820.0,1600928473.0
2054990.0,1600928473.041
2056176.0,1600928473.08
2057143.0,1600928473.118
2058605.0,1600928473.16
2060366.0,1600928473.199
2062476.0,1600928473.239
2064161.0,1600928473.28
2066421.0,1600928473.319
2068722.0,1600928473.36
2071195.0,1600928473.402
2071665.0,1600928473.44
2065578.0,1600928473.478
2057739.0,1600928473.52
2052120.0,1600928473.559
2048374.0,1600928473.6
2045081.0,1600928473.64
2042769.0,1600928473.68
2041761.0,1600928473.72
2040110.0,1600928473.761
2038183.0,1600928473.801
2036973.0,1600928473.839
2036471.0,1600928473.88
2036794.0,1600928473.919
2037525.0,1600928473.959
2038380.0,1600928474.001
2039776.0,1600928474.04
2041159.0,1600928474.08
2042339.0,1600928474.121
2043936.0,1600928474.161
2045833.0,1600928474.199
2048010.0,1600928474.24
2049853.0,1600928474.279
2052345.0,1600928474.32
2054979.0,1600928474.361
2057619.0,1600928474.401
2060481.0,1600928474.44
2062928.0,1600928474.481
2062594.0,1600928474.521
2057568.0,1600928474.559
2051809.0,1600928474.601
2048157.0,1600928474.639
2046284.0,1600928474.68
2044704.0,1600928474.721
2044224.0,1600928474.76
2043802.0,1600928474.801
2043079.0,1600928474.842
2042767.0,1600928474.881
2042197.0,1600928474.919
2042790.0,1600928474.96
2044081.0,1600928475.0
2045291.0,1600928475.04
2046878.0,1600928475.081
2048846.0,1600928475.12
2050433.0,1600928475.16
2052541.0,1600928475.202
2054782.0,1600928475.241
2057164.0,1600928475.279
2059371.0,1600928475.32
2062078.0,1600928475.359
2064886.0,1600928475.399
2067707.0,1600928475.44
2070457.0,1600928475.479
2073324.0,1600928475.519
2076555.0,1600928475.561
2077953.0,1600928475.601
2075119.0,1600928475.64
2071339.0,1600928475.681
2069296.0,1600928475.721
2068235.0,1600928475.761
2067641.0,1600928475.803
2067969.0,1600928475.839
2068172.0,1600928475.88
2068494.0,1600928475.921
2068269.0,1600928475.96
2068237.0,1600928476.001
2069462.0,1600928476.042
2070793.0,1600928476.081
2072388.0,1600928476.121
2074434.0,1600928476.162
2076369.0,1600928476.2
2078295.0,1600928476.24
2080349.0,1600928476.281
2082108.0,1600928476.32
2084609.0,1600928476.36
2086766.0,1600928476.402
2089490.0,1600928476.441
2091937.0,1600928476.481
2094506.0,1600928476.522
2097111.0,1600928476.56
2099908.0,1600928476.601
2102641.0,1600928476.641
2104631.0,1600928476.68
2103300.0,1600928476.721
2099982.0,1600928476.762
2097106.0,1600928476.802
2095607.0,1600928476.842
2095126.0,1600928476.883
2094429.0,1600928476.92
2094444.0,1600928476.96
2094397.0,1600928477.002
2094541.0,1600928477.04
2094602.0,1600928477.081
2095036.0,1600928477.122
2096096.0,1600928477.161
2097315.0,1600928477.202
2098731.0,1600928477.243
2100164.0,1600928477.28
2101916.0,1600928477.32
2103761.0,1600928477.361
2105555.0,1600928477.401
2107527.0,1600928477.441
2109230.0,1600928477.482
2111633.0,1600928477.521
2113752.0,1600928477.562
2116060.0,1600928477.604
2118333.0,1600928477.64
2120814.0,1600928477.68
2123234.0,1600928477.722
2125791.0,1600928477.761
2126401.0,1600928477.802
2123955.0,1600928477.842
2120878.0,1600928477.881
2118884.0,1600928477.921
2117807.0,1600928477.962
2116969.0,1600928478.041
2117288.0,1600928478.002
2116316.0,1600928478.122
2116633.0,1600928478.083
2115972.0,1600928478.162
2115996.0,1600928478.204
2118727.0,1600928478.322
2120137.0,1600928478.361
2121630.0,1600928478.402
2117580.0,1600928478.281
2123213.0,1600928478.443
2116683.0,1600928478.24
2124681.0,1600928478.482
2126203.0,1600928478.522
2128171.0,1600928478.563
2129878.0,1600928478.601
2131914.0,1600928478.641
2133905.0,1600928478.682
2136080.0,1600928478.721
2138410.0,1600928478.762
2140540.0,1600928478.803
2142783.0,1600928478.842
2144861.0,1600928478.882
2144974.0,1600928478.922
2141940.0,1600928478.961
2135874.0,1600928479.122
2135764.0,1600928479.163
2136174.0,1600928479.082
2136024.0,1600928479.203
2135218.0,1600928479.282
2137315.0,1600928479.042
2135731.0,1600928479.243
2139041.0,1600928479.002
2136257.0,1600928479.361
2136806.0,1600928479.403
2135471.0,1600928479.321
2138076.0,1600928479.442
2139390.0,1600928479.482
2140337.0,1600928479.523
2141856.0,1600928479.562
2142774.0,1600928479.603
2144430.0,1600928479.644
2147211.0,1600928479.721
2149044.0,1600928479.762
2150452.0,1600928479.802
2145839.0,1600928479.681
2155996.0,1600928479.923
2152267.0,1600928479.842
2154280.0,1600928479.883
2158270.0,1600928479.963
2153550.0,1600928480.082
2157370.0,1600928480.041
2159517.0,1600928480.003
2148369.0,1600928480.162
2150480.0,1600928480.123
2146479.0,1600928480.243
2146367.0,1600928480.283
2145709.0,1600928480.323
2144586.0,1600928480.362
2147195.0,1600928480.203
2143565.0,1600928480.402
2143368.0,1600928480.441
2144003.0,1600928480.521
2143662.0,1600928480.482
2145974.0,1600928480.604
2144872.0,1600928480.562
2146682.0,1600928480.642
2147736.0,1600928480.682
2148380.0,1600928480.724
2151138.0,1600928480.804
2149890.0,1600928480.763
2152377.0,1600928480.842
2155542.0,1600928480.922
2157496.0,1600928480.963
2154216.0,1600928480.882
2158994.0,1600928481.003
2160817.0,1600928481.043
2162533.0,1600928481.084
2160421.0,1600928481.126
2149083.0,1600928481.208
2141972.0,1600928481.286
2154927.0,1600928481.166
2139533.0,1600928481.327
2145108.0,1600928481.246
2138128.0,1600928481.366
2136468.0,1600928481.407
2134162.0,1600928481.447
2132278.0,1600928481.486
2130672.0,1600928481.526
2128986.0,1600928481.607
2129405.0,1600928481.567
2129262.0,1600928481.647
2129859.0,1600928481.688
2130187.0,1600928481.727
2130713.0,1600928481.767
2131498.0,1600928481.809
2132269.0,1600928481.848
2132841.0,1600928481.888
2134068.0,1600928481.93
2135523.0,1600928481.969
2136861.0,1600928482.008
2138478.0,1600928482.048
2139749.0,1600928482.087
2141671.0,1600928482.128
2143503.0,1600928482.169
2142749.0,1600928482.209
2136833.0,1600928482.248
2129044.0,1600928482.29
2122575.0,1600928482.329
2118374.0,1600928482.367
2115373.0,1600928482.409
2113319.0,1600928482.447
2111801.0,1600928482.488
2109982.0,1600928482.529
2107519.0,1600928482.568
2105740.0,1600928482.609
2104364.0,1600928482.65
2103679.0,1600928482.689
2104016.0,1600928482.729
2104598.0,1600928482.768
2105201.0,1600928482.808
2106014.0,1600928482.848
2107088.0,1600928482.889
2107995.0,1600928482.928
2108891.0,1600928482.966
2110244.0,1600928483.008
2111402.0,1600928483.046
2112821.0,1600928483.087
2114514.0,1600928483.129
2116606.0,1600928483.167
2118397.0,1600928483.208
2120266.0,1600928483.249
2121195.0,1600928483.288
2116220.0,1600928483.328
2108192.0,1600928483.369
2100868.0,1600928483.409
2096644.0,1600928483.449
2093941.0,1600928483.49
2091964.0,1600928483.529
2091469.0,1600928483.568
2090539.0,1600928483.609
2088729.0,1600928483.648
2086637.0,1600928483.688
2085559.0,1600928483.73
2085540.0,1600928483.769
2085786.0,1600928483.81
2086645.0,1600928483.85
2087592.0,1600928483.89
2088935.0,1600928483.928
2090164.0,1600928483.969
2091718.0,1600928484.009
2092872.0,1600928484.048
2094562.0,1600928484.09
2096566.0,1600928484.129
2098213.0,1600928484.169
2100364.0,1600928484.211
2102567.0,1600928484.25
2104820.0,1600928484.29
2107276.0,1600928484.329
2109333.0,1600928484.368
2105995.0,1600928484.409
2098626.0,1600928484.45
2091676.0,1600928484.489
2087533.0,1600928484.529
2085394.0,1600928484.57
2084597.0,1600928484.61
2084635.0,1600928484.65
2084303.0,1600928484.689
2083067.0,1600928484.728
2081888.0,1600928484.769
2080591.0,1600928484.81
2080929.0,1600928484.849
2081766.0,1600928484.889
2082803.0,1600928484.931
2084171.0,1600928484.97
2085798.0,1600928485.011
2087304.0,1600928485.049
2088503.0,1600928485.088
2090117.0,1600928485.129
2091676.0,1600928485.17
2094012.0,1600928485.21
2095754.0,1600928485.249
2098357.0,1600928485.291
2100691.0,1600928485.33
2103340.0,1600928485.37
2105779.0,1600928485.41
2103999.0,1600928485.449
2097629.0,1600928485.489
2090644.0,1600928485.53
2085997.0,1600928485.569
2083694.0,1600928485.61
2082533.0,1600928485.65
2081629.0,1600928485.689
2081547.0,1600928485.729
2080530.0,1600928485.771
2078669.0,1600928485.811
2077704.0,1600928485.85
2077450.0,1600928485.89
2078400.0,1600928485.929
2079398.0,1600928485.969
