bvp,time
-44.19,1611470706.3125
-38.84,1611470706.328125
-30.72,1611470706.34375
-20.87,1611470706.359375
-10.61,1611470706.375
-1.23,1611470706.390625
6.48,1611470706.40625
12.29,1611470706.421875
16.46,1611470706.4375
19.51,1611470706.453125
21.95,1611470706.46875
24.06,1611470706.484375
25.85,1611470706.5
27.18,1611470706.515625
27.87,1611470706.53125
27.84,1611470706.546875
27.13,1611470706.5625
25.88,1611470706.578125
24.29,1611470706.59375
22.5,1611470706.609375
20.61,1611470706.625
18.71,1611470706.640625
16.9,1611470706.65625
15.29,1611470706.671875
13.97,1611470706.6875
12.96,1611470706.703125
12.25,1611470706.71875
11.8,1611470706.734375
11.57,1611470706.75
11.44,1611470706.765625
11.23,1611470706.78125
10.66,1611470706.796875
9.49,1611470706.8125
7.59,1611470706.828125
5.06,1611470706.84375
2.23,1611470706.859375
-0.48,1611470706.875
-2.75,1611470706.890625
-4.44,1611470706.90625
-5.71,1611470706.921875
-6.88,1611470706.9375
-8.48,1611470706.953125
-10.96,1611470706.96875
-14.64,1611470706.984375
-19.52,1611470707.0
-25.06,1611470707.015625
-30.11,1611470707.03125
-33.08,1611470707.046875
-32.35,1611470707.0625
-26.85,1611470707.078125
-16.58,1611470707.09375
-2.76,1611470707.109375
12.48,1611470707.125
26.79,1611470707.140625
38.38,1611470707.15625
46.65,1611470707.171875
52.3,1611470707.1875
56.97,1611470707.203125
62.54,1611470707.21875
70.42,1611470707.234375
81.12,1611470707.25
94.1,1611470707.265625
108.09,1611470707.28125
121.49,1611470707.296875
132.9,1611470707.3125
141.44,1611470707.328125
146.82,1611470707.34375
149.22,1611470707.359375
148.99,1611470707.375
146.38,1611470707.390625
141.42,1611470707.40625
134.08,1611470707.421875
124.39,1611470707.4375
112.74,1611470707.453125
99.68,1611470707.46875
85.73,1611470707.484375
70.92,1611470707.5
54.39,1611470707.515625
34.41,1611470707.53125
8.55,1611470707.546875
-25.98,1611470707.5625
-72.0,1611470707.578125
-131.56,1611470707.59375
-204.73,1611470707.609375
-288.28,1611470707.625
-375.08,1611470707.640625
-454.95,1611470707.65625
-517.31,1611470707.671875
-554.5,1611470707.6875
-564.35,1611470707.703125
-550.54,1611470707.71875
-520.61,1611470707.734375
-482.54,1611470707.75
-441.9,1611470707.765625
-400.8,1611470707.78125
-358.77,1611470707.796875
-314.62,1611470707.8125
-267.84,1611470707.828125
-218.99,1611470707.84375
-169.14,1611470707.859375
-119.48,1611470707.875
-71.16,1611470707.890625
-25.71,1611470707.90625
14.76,1611470707.921875
47.96,1611470707.9375
72.21,1611470707.953125
87.02,1611470707.96875
93.41,1611470707.984375
93.57,1611470708.0
90.16,1611470708.015625
85.71,1611470708.03125
82.21,1611470708.046875
80.93,1611470708.0625
82.21,1611470708.078125
85.37,1611470708.09375
88.89,1611470708.109375
90.75,1611470708.125
89.23,1611470708.140625
83.53,1611470708.15625
74.12,1611470708.171875
62.56,1611470708.1875
50.77,1611470708.203125
40.37,1611470708.21875
32.13,1611470708.234375
25.82,1611470708.25
20.57,1611470708.265625
15.37,1611470708.28125
9.35,1611470708.296875
2.13,1611470708.3125
-6.34,1611470708.328125
-15.87,1611470708.34375
-26.18,1611470708.359375
-37.05,1611470708.375
-48.18,1611470708.390625
-59.09,1611470708.40625
-68.99,1611470708.421875
-76.75,1611470708.4375
-81.17,1611470708.453125
-81.31,1611470708.46875
-76.82,1611470708.484375
-68.18,1611470708.5
-56.67,1611470708.515625
-44.0,1611470708.53125
-31.83,1611470708.546875
-21.31,1611470708.5625
-12.83,1611470708.578125
-6.12,1611470708.59375
-0.5,1611470708.609375
4.68,1611470708.625
9.87,1611470708.640625
15.22,1611470708.65625
20.65,1611470708.671875
26.04,1611470708.6875
31.37,1611470708.703125
36.68,1611470708.71875
42.03,1611470708.734375
47.46,1611470708.75
52.85,1611470708.765625
58.06,1611470708.78125
62.92,1611470708.796875
67.28,1611470708.8125
70.97,1611470708.828125
73.78,1611470708.84375
75.42,1611470708.859375
75.59,1611470708.875
74.06,1611470708.890625
70.83,1611470708.90625
66.2,1611470708.921875
60.69,1611470708.9375
54.99,1611470708.953125
49.68,1611470708.96875
45.09,1611470708.984375
41.2,1611470709.0
37.64,1611470709.015625
33.83,1611470709.03125
29.09,1611470709.046875
22.9,1611470709.0625
15.03,1611470709.078125
5.8,1611470709.09375
-3.97,1611470709.109375
-12.98,1611470709.125
-19.83,1611470709.140625
-23.38,1611470709.15625
-23.08,1611470709.171875
-19.12,1611470709.1875
-12.26,1611470709.203125
-3.54,1611470709.21875
6.03,1611470709.234375
15.72,1611470709.25
24.96,1611470709.265625
33.28,1611470709.28125
40.18,1611470709.296875
45.22,1611470709.3125
48.1,1611470709.328125
48.93,1611470709.34375
48.11,1611470709.359375
46.34,1611470709.375
44.32,1611470709.390625
42.56,1611470709.40625
41.31,1611470709.421875
40.57,1611470709.4375
40.25,1611470709.453125
40.3,1611470709.46875
40.75,1611470709.484375
41.66,1611470709.5
43.04,1611470709.515625
44.75,1611470709.53125
46.47,1611470709.546875
47.71,1611470709.5625
47.95,1611470709.578125
46.76,1611470709.59375
43.91,1611470709.609375
39.45,1611470709.625
33.72,1611470709.640625
27.22,1611470709.65625
20.55,1611470709.671875
14.14,1611470709.6875
8.28,1611470709.703125
2.92,1611470709.71875
-2.28,1611470709.734375
-7.86,1611470709.75
-14.36,1611470709.765625
-22.06,1611470709.78125
-30.71,1611470709.796875
-39.41,1611470709.8125
-46.76,1611470709.828125
-51.18,1611470709.84375
-51.5,1611470709.859375
-47.33,1611470709.875
-39.24,1611470709.890625
-28.56,1611470709.90625
-16.95,1611470709.921875
-5.88,1611470709.9375
3.66,1611470709.953125
11.26,1611470709.96875
16.94,1611470709.984375
20.87,1611470710.0
23.3,1611470710.015625
24.42,1611470710.03125
24.44,1611470710.046875
23.61,1611470710.0625
22.14,1611470710.078125
20.23,1611470710.09375
17.99,1611470710.109375
15.51,1611470710.125
12.9,1611470710.140625
10.32,1611470710.15625
8.0,1611470710.171875
6.15,1611470710.1875
4.89,1611470710.203125
4.14,1611470710.21875
3.66,1611470710.234375
3.06,1611470710.25
1.89,1611470710.265625
-0.16,1611470710.28125
-3.28,1611470710.296875
-7.32,1611470710.3125
-11.99,1611470710.328125
-16.84,1611470710.34375
-21.46,1611470710.359375
-25.62,1611470710.375
-29.33,1611470710.390625
-32.88,1611470710.40625
-36.61,1611470710.421875
-40.71,1611470710.4375
-44.95,1611470710.453125
-48.69,1611470710.46875
-50.95,1611470710.484375
-50.76,1611470710.5
-47.48,1611470710.515625
-41.01,1611470710.53125
-31.84,1611470710.546875
-20.82,1611470710.5625
-8.95,1611470710.578125
2.86,1611470710.59375
13.91,1611470710.609375
23.7,1611470710.625
31.88,1611470710.640625
38.3,1611470710.65625
42.99,1611470710.671875
46.2,1611470710.6875
48.34,1611470710.703125
49.78,1611470710.71875
50.77,1611470710.734375
51.38,1611470710.75
51.53,1611470710.765625
51.15,1611470710.78125
50.3,1611470710.796875
49.29,1611470710.8125
48.52,1611470710.828125
48.36,1611470710.84375
48.91,1611470710.859375
49.92,1611470710.875
50.78,1611470710.890625
50.71,1611470710.90625
48.99,1611470710.921875
45.29,1611470710.9375
39.73,1611470710.953125
32.89,1611470710.96875
25.67,1611470710.984375
18.96,1611470711.0
13.37,1611470711.015625
9.04,1611470711.03125
5.61,1611470711.046875
2.4,1611470711.0625
-1.34,1611470711.078125
-6.16,1611470711.09375
-12.18,1611470711.109375
-19.06,1611470711.125
-26.04,1611470711.140625
-32.11,1611470711.15625
-36.3,1611470711.171875
-37.86,1611470711.1875
-36.42,1611470711.203125
-32.06,1611470711.21875
-25.26,1611470711.234375
-16.73,1611470711.25
-7.29,1611470711.265625
2.34,1611470711.28125
11.58,1611470711.296875
19.96,1611470711.3125
27.1,1611470711.328125
32.67,1611470711.34375
36.54,1611470711.359375
38.74,1611470711.375
39.61,1611470711.390625
39.62,1611470711.40625
39.22,1611470711.421875
38.7,1611470711.4375
38.06,1611470711.453125
37.15,1611470711.46875
35.86,1611470711.484375
34.27,1611470711.5
32.7,1611470711.515625
31.56,1611470711.53125
31.17,1611470711.546875
31.54,1611470711.5625
32.4,1611470711.578125
33.24,1611470711.59375
33.52,1611470711.609375
32.87,1611470711.625
31.14,1611470711.640625
28.38,1611470711.65625
24.78,1611470711.671875
20.55,1611470711.6875
15.86,1611470711.703125
10.73,1611470711.71875
5.1,1611470711.734375
-1.23,1611470711.75
-8.43,1611470711.765625
-16.5,1611470711.78125
-25.12,1611470711.796875
-33.55,1611470711.8125
-40.76,1611470711.828125
-45.64,1611470711.84375
-47.35,1611470711.859375
-45.48,1611470711.875
-40.24,1611470711.890625
-32.25,1611470711.90625
-22.39,1611470711.921875
-11.61,1611470711.9375
-0.74,1611470711.953125
9.47,1611470711.96875
18.43,1611470711.984375
25.7,1611470712.0
31.0,1611470712.015625
34.26,1611470712.03125
35.62,1611470712.046875
35.46,1611470712.0625
34.27,1611470712.078125
32.63,1611470712.09375
31.04,1611470712.109375
29.87,1611470712.125
29.24,1611470712.140625
29.1,1611470712.15625
29.25,1611470712.171875
29.5,1611470712.1875
29.69,1611470712.203125
29.76,1611470712.21875
29.7,1611470712.234375
29.54,1611470712.25
29.25,1611470712.265625
28.75,1611470712.28125
27.87,1611470712.296875
26.37,1611470712.3125
24.09,1611470712.328125
20.94,1611470712.34375
17.1,1611470712.359375
12.95,1611470712.375
8.99,1611470712.390625
5.65,1611470712.40625
3.08,1611470712.421875
1.14,1611470712.4375
-0.57,1611470712.453125
-2.6,1611470712.46875
-5.43,1611470712.484375
-9.45,1611470712.5
-14.78,1611470712.515625
-21.21,1611470712.53125
-28.13,1611470712.546875
-34.5,1611470712.5625
-39.04,1611470712.578125
-40.56,1611470712.59375
-38.25,1611470712.609375
-32.06,1611470712.625
-22.7,1611470712.640625
-11.48,1611470712.65625
0.07,1611470712.671875
10.61,1611470712.6875
19.18,1611470712.703125
25.38,1611470712.71875
29.23,1611470712.734375
31.14,1611470712.75
31.7,1611470712.765625
31.62,1611470712.78125
31.58,1611470712.796875
32.19,1611470712.8125
33.78,1611470712.828125
36.44,1611470712.84375
39.89,1611470712.859375
43.65,1611470712.875
47.15,1611470712.890625
50.0,1611470712.90625
52.1,1611470712.921875
53.63,1611470712.9375
54.89,1611470712.953125
56.12,1611470712.96875
57.43,1611470712.984375
58.79,1611470713.0
60.22,1611470713.015625
61.82,1611470713.03125
63.83,1611470713.046875
66.4,1611470713.0625
69.43,1611470713.078125
72.45,1611470713.09375
74.84,1611470713.109375
76.19,1611470713.125
76.46,1611470713.140625
75.98,1611470713.15625
74.98,1611470713.171875
73.23,1611470713.1875
69.79,1611470713.203125
63.33,1611470713.21875
52.75,1611470713.234375
37.91,1611470713.25
19.86,1611470713.265625
0.63,1611470713.28125
-17.47,1611470713.296875
-32.63,1611470713.3125
-43.96,1611470713.328125
-51.54,1611470713.34375
-55.94,1611470713.359375
-57.84,1611470713.375
-57.72,1611470713.390625
-55.91,1611470713.40625
-52.71,1611470713.421875
-48.62,1611470713.4375
-44.25,1611470713.453125
-40.27,1611470713.46875
-37.12,1611470713.484375
-34.96,1611470713.5
-33.67,1611470713.515625
-33.0,1611470713.53125
-32.75,1611470713.546875
-32.73,1611470713.5625
-32.79,1611470713.578125
-32.69,1611470713.59375
-32.14,1611470713.609375
-30.84,1611470713.625
-28.71,1611470713.640625
-25.93,1611470713.65625
-22.93,1611470713.671875
-20.2,1611470713.6875
-18.05,1611470713.703125
-16.53,1611470713.71875
-15.47,1611470713.734375
-14.65,1611470713.75
-13.98,1611470713.765625
-13.6,1611470713.78125
-13.72,1611470713.796875
-14.42,1611470713.8125
-15.48,1611470713.828125
-16.41,1611470713.84375
-16.74,1611470713.859375
-16.23,1611470713.875
-15.08,1611470713.890625
-13.9,1611470713.90625
-13.45,1611470713.921875
-14.38,1611470713.9375
-16.96,1611470713.953125
-21.08,1611470713.96875
-26.25,1611470713.984375
-31.71,1611470714.0
-36.55,1611470714.015625
-39.79,1611470714.03125
-40.59,1611470714.046875
-38.47,1611470714.0625
-33.48,1611470714.078125
-26.26,1611470714.09375
-17.85,1611470714.109375
-9.48,1611470714.125
-2.18,1611470714.140625
3.38,1611470714.15625
7.0,1611470714.171875
8.88,1611470714.1875
9.47,1611470714.203125
9.28,1611470714.21875
8.8,1611470714.234375
8.34,1611470714.25
8.07,1611470714.265625
7.99,1611470714.28125
8.03,1611470714.296875
8.11,1611470714.3125
8.16,1611470714.328125
8.18,1611470714.34375
8.09,1611470714.359375
7.84,1611470714.375
7.33,1611470714.390625
6.52,1611470714.40625
5.46,1611470714.421875
4.27,1611470714.4375
3.05,1611470714.453125
1.79,1611470714.46875
0.31,1611470714.484375
-1.61,1611470714.5
-4.13,1611470714.515625
-7.18,1611470714.53125
-10.43,1611470714.546875
-13.49,1611470714.5625
-16.05,1611470714.578125
-18.18,1611470714.59375
-20.31,1611470714.609375
-23.02,1611470714.625
-26.77,1611470714.640625
-31.55,1611470714.65625
-36.79,1611470714.671875
-41.54,1611470714.6875
-44.74,1611470714.703125
-45.59,1611470714.71875
-43.73,1611470714.734375
-39.29,1611470714.75
-32.86,1611470714.765625
-25.33,1611470714.78125
-17.78,1611470714.796875
-11.23,1611470714.8125
-6.47,1611470714.828125
-3.78,1611470714.84375
-2.93,1611470714.859375
-3.28,1611470714.875
-4.1,1611470714.890625
-4.91,1611470714.90625
-5.62,1611470714.921875
-6.48,1611470714.9375
-7.71,1611470714.953125
-9.29,1611470714.96875
-10.78,1611470714.984375
-11.48,1611470715.0
-10.81,1611470715.015625
-8.65,1611470715.03125
-5.46,1611470715.046875
-2.19,1611470715.0625
0.13,1611470715.078125
0.7,1611470715.09375
-0.82,1611470715.109375
-4.23,1611470715.125
-9.05,1611470715.140625
-14.67,1611470715.15625
-20.51,1611470715.171875
-26.06,1611470715.1875
-30.87,1611470715.203125
-34.6,1611470715.21875
-37.06,1611470715.234375
-38.39,1611470715.25
-39.05,1611470715.265625
-39.76,1611470715.28125
-41.24,1611470715.296875
-43.96,1611470715.3125
-47.94,1611470715.328125
-52.72,1611470715.34375
-57.52,1611470715.359375
-61.4,1611470715.375
-63.59,1611470715.390625
-63.54,1611470715.40625
-61.12,1611470715.421875
-56.45,1611470715.4375
-49.93,1611470715.453125
-42.03,1611470715.46875
-33.23,1611470715.484375
-24.0,1611470715.5
-14.81,1611470715.515625
-6.21,1611470715.53125
1.14,1611470715.546875
6.59,1611470715.5625
9.72,1611470715.578125
10.52,1611470715.59375
9.45,1611470715.609375
7.33,1611470715.625
5.06,1611470715.640625
3.34,1611470715.65625
2.56,1611470715.671875
2.89,1611470715.6875
4.35,1611470715.703125
6.97,1611470715.71875
10.74,1611470715.734375
15.47,1611470715.75
20.66,1611470715.765625
25.51,1611470715.78125
29.1,1611470715.796875
30.73,1611470715.8125
30.26,1611470715.828125
28.18,1611470715.84375
25.48,1611470715.859375
23.25,1611470715.875
22.24,1611470715.890625
22.56,1611470715.90625
23.66,1611470715.921875
24.59,1611470715.9375
24.4,1611470715.953125
22.58,1611470715.96875
19.2,1611470715.984375
14.92,1611470716.0
10.73,1611470716.015625
7.6,1611470716.03125
6.24,1611470716.046875
6.97,1611470716.0625
9.73,1611470716.078125
14.23,1611470716.09375
19.96,1611470716.109375
26.31,1611470716.125
32.55,1611470716.140625
37.93,1611470716.15625
41.71,1611470716.171875
43.35,1611470716.1875
42.52,1611470716.203125
39.25,1611470716.21875
33.91,1611470716.234375
27.13,1611470716.25
19.78,1611470716.265625
12.76,1611470716.28125
6.91,1611470716.296875
2.88,1611470716.3125
1.01,1611470716.328125
1.24,1611470716.34375
3.2,1611470716.359375
6.25,1611470716.375
9.69,1611470716.390625
12.93,1611470716.40625
15.61,1611470716.421875
17.53,1611470716.4375
18.58,1611470716.453125
18.59,1611470716.46875
17.36,1611470716.484375
14.78,1611470716.5
10.98,1611470716.515625
6.44,1611470716.53125
1.83,1611470716.546875
-2.17,1611470716.5625
-5.21,1611470716.578125
-7.41,1611470716.59375
-9.32,1611470716.609375
-11.63,1611470716.625
-14.87,1611470716.640625
-19.15,1611470716.65625
-24.08,1611470716.671875
-28.93,1611470716.6875
-32.8,1611470716.703125
-34.92,1611470716.71875
-34.78,1611470716.734375
-32.3,1611470716.75
-27.75,1611470716.765625
-21.7,1611470716.78125
-14.92,1611470716.796875
-8.16,1611470716.8125
-2.09,1611470716.828125
2.73,1611470716.84375
5.94,1611470716.859375
7.36,1611470716.875
7.06,1611470716.890625
5.33,1611470716.90625
2.67,1611470716.921875
-0.36,1611470716.9375
-3.32,1611470716.953125
-5.98,1611470716.96875
-8.42,1611470716.984375
-10.85,1611470717.0
-13.4,1611470717.015625
-15.86,1611470717.03125
-17.63,1611470717.046875
-17.84,1611470717.0625
-15.71,1611470717.078125
-10.92,1611470717.09375
-3.88,1611470717.109375
4.29,1611470717.125
12.0,1611470717.140625
17.73,1611470717.15625
20.42,1611470717.171875
19.8,1611470717.1875
16.39,1611470717.203125
11.28,1611470717.21875
5.7,1611470717.234375
0.6,1611470717.25
-3.48,1611470717.265625
-6.54,1611470717.28125
-8.91,1611470717.296875
-11.07,1611470717.3125
-13.4,1611470717.328125
-16.13,1611470717.34375
-19.27,1611470717.359375
-22.62,1611470717.375
-25.8,1611470717.390625
-28.28,1611470717.40625
-29.49,1611470717.421875
-28.9,1611470717.4375
-26.25,1611470717.453125
-21.63,1611470717.46875
-15.47,1611470717.484375
-8.5,1611470717.5
-1.56,1611470717.515625
4.62,1611470717.53125
9.47,1611470717.546875
12.76,1611470717.5625
14.56,1611470717.578125
15.2,1611470717.59375
15.22,1611470717.609375
15.16,1611470717.625
15.41,1611470717.640625
16.04,1611470717.65625
16.84,1611470717.671875
17.48,1611470717.6875
17.71,1611470717.703125
17.6,1611470717.71875
17.48,1611470717.734375
17.78,1611470717.75
18.78,1611470717.765625
20.39,1611470717.78125
22.19,1611470717.796875
23.61,1611470717.8125
24.14,1611470717.828125
23.54,1611470717.84375
21.74,1611470717.859375
18.8,1611470717.875
14.83,1611470717.890625
9.97,1611470717.90625
4.48,1611470717.921875
-1.23,1611470717.9375
-6.63,1611470717.953125
-11.27,1611470717.96875
-14.94,1611470717.984375
-17.76,1611470718.0
-20.14,1611470718.015625
-22.57,1611470718.03125
-25.48,1611470718.046875
-28.99,1611470718.0625
-32.9,1611470718.078125
-36.67,1611470718.09375
-39.6,1611470718.109375
-40.95,1611470718.125
-40.11,1611470718.140625
-36.8,1611470718.15625
-31.11,1611470718.171875
-23.54,1611470718.1875
-14.88,1611470718.203125
-6.09,1611470718.21875
1.92,1611470718.234375
8.39,1611470718.25
12.92,1611470718.265625
15.43,1611470718.28125
16.25,1611470718.296875
15.96,1611470718.3125
15.28,1611470718.328125
14.83,1611470718.34375
14.93,1611470718.359375
15.58,1611470718.375
16.5,1611470718.390625
17.39,1611470718.40625
18.15,1611470718.421875
18.94,1611470718.4375
20.07,1611470718.453125
21.75,1611470718.46875
23.9,1611470718.484375
26.06,1611470718.5
27.61,1611470718.515625
28.03,1611470718.53125
27.2,1611470718.546875
25.32,1611470718.5625
22.83,1611470718.578125
20.07,1611470718.59375
17.16,1611470718.609375
13.99,1611470718.625
10.37,1611470718.640625
6.26,1611470718.65625
1.83,1611470718.671875
-2.5,1611470718.6875
-6.33,1611470718.703125
-9.39,1611470718.71875
-11.74,1611470718.734375
-13.79,1611470718.75
-16.14,1611470718.765625
-19.34,1611470718.78125
-23.69,1611470718.796875
-29.05,1611470718.8125
-34.8,1611470718.828125
-40.07,1611470718.84375
-43.92,1611470718.859375
-45.62,1611470718.875
-44.69,1611470718.890625
-41.0,1611470718.90625
-34.73,1611470718.921875
-26.35,1611470718.9375
-16.63,1611470718.953125
-6.59,1611470718.96875
2.64,1611470718.984375
10.01,1611470719.0
14.88,1611470719.015625
17.2,1611470719.03125
17.5,1611470719.046875
16.64,1611470719.0625
15.53,1611470719.078125
14.8,1611470719.09375
14.66,1611470719.109375
15.0,1611470719.125
15.55,1611470719.140625
16.16,1611470719.15625
16.81,1611470719.171875
17.68,1611470719.1875
18.93,1611470719.203125
20.6,1611470719.21875
22.47,1611470719.234375
24.22,1611470719.25
25.45,1611470719.265625
25.93,1611470719.28125
25.63,1611470719.296875
24.68,1611470719.3125
23.23,1611470719.328125
21.28,1611470719.34375
18.62,1611470719.359375
14.91,1611470719.375
9.92,1611470719.390625
3.7,1611470719.40625
-3.25,1611470719.421875
-10.15,1611470719.4375
-16.19,1611470719.453125
-20.83,1611470719.46875
-24.03,1611470719.484375
-26.2,1611470719.5
-28.06,1611470719.515625
-30.29,1611470719.53125
-33.31,1611470719.546875
-37.19,1611470719.5625
-41.54,1611470719.578125
-45.77,1611470719.59375
-49.12,1611470719.609375
-50.91,1611470719.625
-50.61,1611470719.640625
-48.0,1611470719.65625
-43.14,1611470719.671875
-36.46,1611470719.6875
-28.57,1611470719.703125
-20.22,1611470719.71875
-12.19,1611470719.734375
-5.09,1611470719.75
0.63,1611470719.765625
4.78,1611470719.78125
7.42,1611470719.796875
8.8,1611470719.8125
9.3,1611470719.828125
9.29,1611470719.84375
9.04,1611470719.859375
8.67,1611470719.875
8.22,1611470719.890625
7.72,1611470719.90625
7.32,1611470719.921875
7.29,1611470719.9375
7.94,1611470719.953125
9.49,1611470719.96875
11.87,1611470719.984375
14.76,1611470720.0
17.57,1611470720.015625
19.74,1611470720.03125
20.78,1611470720.046875
20.49,1611470720.0625
18.88,1611470720.078125
16.09,1611470720.09375
12.42,1611470720.109375
8.2,1611470720.125
3.87,1611470720.140625
-0.12,1611470720.15625
-3.43,1611470720.171875
-5.96,1611470720.1875
-7.94,1611470720.203125
-9.9,1611470720.21875
-12.5,1611470720.234375
-16.27,1611470720.25
-21.36,1611470720.265625
-27.39,1611470720.28125
-33.52,1611470720.296875
-38.62,1611470720.3125
-41.56,1611470720.328125
-41.48,1611470720.34375
-38.05,1611470720.359375
-31.5,1611470720.375
-22.56,1611470720.390625
-12.28,1611470720.40625
-1.81,1611470720.421875
7.84,1611470720.4375
15.99,1611470720.453125
22.32,1611470720.46875
26.83,1611470720.484375
29.77,1611470720.5
31.52,1611470720.515625
32.46,1611470720.53125
32.89,1611470720.546875
33.01,1611470720.5625
32.92,1611470720.578125
32.64,1611470720.59375
32.17,1611470720.609375
31.54,1611470720.625
30.9,1611470720.640625
30.38,1611470720.65625
30.08,1611470720.671875
29.96,1611470720.6875
29.79,1611470720.703125
29.18,1611470720.71875
27.68,1611470720.734375
24.96,1611470720.75
20.97,1611470720.765625
16.04,1611470720.78125
10.8,1611470720.796875
6.04,1611470720.8125
2.4,1611470720.828125
0.12,1611470720.84375
-1.05,1611470720.859375
-1.82,1611470720.875
-3.12,1611470720.890625
-5.75,1611470720.90625
-10.13,1611470720.921875
-16.11,1611470720.9375
-23.0,1611470720.953125
-29.77,1611470720.96875
-35.24,1611470720.984375
-38.31,1611470721.0
-38.14,1611470721.015625
-34.28,1611470721.03125
-26.84,1611470721.046875
-16.43,1611470721.0625
-4.13,1611470721.078125
8.62,1611470721.09375
20.28,1611470721.109375
29.4,1611470721.125
34.98,1611470721.140625
36.65,1611470721.15625
34.83,1611470721.171875
30.6,1611470721.1875
25.36,1611470721.203125
20.42,1611470721.21875
16.59,1611470721.234375
13.99,1611470721.25
12.27,1611470721.265625
10.94,1611470721.28125
9.78,1611470721.296875
8.94,1611470721.3125
8.88,1611470721.328125
9.95,1611470721.34375
12.12,1611470721.359375
14.87,1611470721.375
17.32,1611470721.390625
18.61,1611470721.40625
18.18,1611470721.421875
15.99,1611470721.4375
12.39,1611470721.453125
8.02,1611470721.46875
3.49,1611470721.484375
-0.77,1611470721.5
-4.58,1611470721.515625
-8.04,1611470721.53125
-11.36,1611470721.546875
-14.79,1611470721.5625
-18.58,1611470721.578125
-22.9,1611470721.59375
-27.86,1611470721.609375
-33.39,1611470721.625
-39.17,1611470721.640625
-44.57,1611470721.65625
-48.64,1611470721.671875
-50.32,1611470721.6875
-48.72,1611470721.703125
-43.46,1611470721.71875
-34.79,1611470721.734375
-23.63,1611470721.75
-11.26,1611470721.765625
1.0,1611470721.78125
11.99,1611470721.796875
20.95,1611470721.8125
27.42,1611470721.828125
31.23,1611470721.84375
32.47,1611470721.859375
31.51,1611470721.875
28.99,1611470721.890625
25.76,1611470721.90625
22.65,1611470721.921875
20.28,1611470721.9375
18.92,1611470721.953125
18.49,1611470721.96875
18.81,1611470721.984375
19.69,1611470722.0
21.05,1611470722.015625
22.84,1611470722.03125
24.94,1611470722.046875
27.03,1611470722.0625
28.68,1611470722.078125
29.41,1611470722.09375
28.89,1611470722.109375
26.98,1611470722.125
23.77,1611470722.140625
19.45,1611470722.15625
14.36,1611470722.171875
8.93,1611470722.1875
3.62,1611470722.203125
-1.15,1611470722.21875
-5.14,1611470722.234375
-8.38,1611470722.25
-11.21,1611470722.265625
-14.16,1611470722.28125
-17.71,1611470722.296875
-22.14,1611470722.3125
-27.39,1611470722.328125
-33.06,1611470722.34375
-38.5,1611470722.359375
-42.92,1611470722.375
-45.59,1611470722.390625
-45.88,1611470722.40625
-43.47,1611470722.421875
-38.37,1611470722.4375
-30.93,1611470722.453125
-21.81,1611470722.46875
-11.96,1611470722.484375
-2.41,1611470722.5
5.82,1611470722.515625
11.89,1611470722.53125
15.38,1611470722.546875
16.36,1611470722.5625
15.41,1611470722.578125
13.45,1611470722.59375
11.45,1611470722.609375
10.13,1611470722.625
9.76,1611470722.640625
10.24,1611470722.65625
11.19,1611470722.671875
12.28,1611470722.6875
13.35,1611470722.703125
14.43,1611470722.71875
15.62,1611470722.734375
16.99,1611470722.75
18.41,1611470722.765625
19.68,1611470722.78125
20.57,1611470722.796875
20.93,1611470722.8125
20.72,1611470722.828125
19.94,1611470722.84375
18.59,1611470722.859375
16.62,1611470722.875
13.98,1611470722.890625
10.64,1611470722.90625
6.65,1611470722.921875
2.19,1611470722.9375
-2.47,1611470722.953125
-6.99,1611470722.96875
-11.05,1611470722.984375
-14.47,1611470723.0
-17.27,1611470723.015625
-19.76,1611470723.03125
-22.34,1611470723.046875
-25.34,1611470723.0625
-28.83,1611470723.078125
-32.53,1611470723.09375
-35.87,1611470723.109375
-38.15,1611470723.125
-38.8,1611470723.140625
-37.49,1611470723.15625
-34.21,1611470723.171875
-29.18,1611470723.1875
-22.77,1611470723.203125
-15.48,1611470723.21875
-7.84,1611470723.234375
-0.47,1611470723.25
6.02,1611470723.265625
11.08,1611470723.28125
14.39,1611470723.296875
15.92,1611470723.3125
15.97,1611470723.328125
15.08,1611470723.34375
13.92,1611470723.359375
13.1,1611470723.375
12.95,1611470723.390625
13.5,1611470723.40625
14.54,1611470723.421875
15.79,1611470723.4375
17.06,1611470723.453125
18.3,1611470723.46875
19.52,1611470723.484375
20.71,1611470723.5
21.69,1611470723.515625
22.25,1611470723.53125
22.15,1611470723.546875
21.33,1611470723.5625
19.86,1611470723.578125
17.87,1611470723.59375
15.42,1611470723.609375
12.42,1611470723.625
8.79,1611470723.640625
4.53,1611470723.65625
-0.07,1611470723.671875
-4.59,1611470723.6875
-8.54,1611470723.703125
-11.67,1611470723.71875
-14.06,1611470723.734375
-16.07,1611470723.75
-18.14,1611470723.765625
-20.65,1611470723.78125
-23.74,1611470723.796875
-27.31,1611470723.8125
-31.1,1611470723.828125
-34.68,1611470723.84375
-37.51,1611470723.859375
-38.93,1611470723.875
-38.26,1611470723.890625
-35.04,1611470723.90625
-29.19,1611470723.921875
-21.15,1611470723.9375
-11.84,1611470723.953125
-2.45,1611470723.96875
5.87,1611470723.984375
12.28,1611470724.0
16.39,1611470724.015625
18.26,1611470724.03125
18.34,1611470724.046875
17.29,1611470724.0625
15.81,1611470724.078125
14.52,1611470724.09375
13.82,1611470724.109375
13.85,1611470724.125
14.49,1611470724.140625
15.51,1611470724.15625
16.63,1611470724.171875
17.64,1611470724.1875
18.42,1611470724.203125
18.96,1611470724.21875
19.23,1611470724.234375
19.21,1611470724.25
18.85,1611470724.265625
18.13,1611470724.28125
17.04,1611470724.296875
15.56,1611470724.3125
13.67,1611470724.328125
11.28,1611470724.34375
8.29,1611470724.359375
4.6,1611470724.375
0.29,1611470724.390625
-4.39,1611470724.40625
-8.99,1611470724.421875
-13.05,1611470724.4375
-16.25,1611470724.453125
-18.54,1611470724.46875
-20.22,1611470724.484375
-21.8,1611470724.5
-23.87,1611470724.515625
-26.86,1611470724.53125
-30.89,1611470724.546875
-35.71,1611470724.5625
-40.71,1611470724.578125
-45.08,1611470724.59375
-47.99,1611470724.609375
-48.81,1611470724.625
-47.32,1611470724.640625
-43.71,1611470724.65625
-38.55,1611470724.671875
-32.52,1611470724.6875
-26.32,1611470724.703125
-20.42,1611470724.71875
-15.13,1611470724.734375
-10.6,1611470724.75
-6.93,1611470724.765625
-4.11,1611470724.78125
-2.04,1611470724.796875
-0.5,1611470724.8125
0.79,1611470724.828125
1.99,1611470724.84375
3.09,1611470724.859375
3.96,1611470724.875
4.44,1611470724.890625
4.46,1611470724.90625
4.18,1611470724.921875
3.86,1611470724.9375
3.72,1611470724.953125
3.9,1611470724.96875
4.35,1611470724.984375
4.96,1611470725.0
5.57,1611470725.015625
6.05,1611470725.03125
6.23,1611470725.046875
5.91,1611470725.0625
4.89,1611470725.078125
3.1,1611470725.09375
0.62,1611470725.109375
-2.23,1611470725.125
-5.05,1611470725.140625
-7.45,1611470725.15625
-9.19,1611470725.171875
-10.2,1611470725.1875
-10.62,1611470725.203125
-10.72,1611470725.21875
-10.91,1611470725.234375
-11.64,1611470725.25
-13.29,1611470725.265625
-16.02,1611470725.28125
-19.64,1611470725.296875
-23.56,1611470725.3125
-26.85,1611470725.328125
-28.48,1611470725.34375
-27.61,1611470725.359375
-23.8,1611470725.375
-17.17,1611470725.390625
-8.38,1611470725.40625
1.53,1611470725.421875
11.4,1611470725.4375
20.16,1611470725.453125
27.05,1611470725.46875
31.77,1611470725.484375
34.41,1611470725.5
35.42,1611470725.515625
35.4,1611470725.53125
34.96,1611470725.546875
34.51,1611470725.5625
34.17,1611470725.578125
33.82,1611470725.59375
33.17,1611470725.609375
32.05,1611470725.625
30.48,1611470725.640625
28.73,1611470725.65625
27.15,1611470725.671875
26.05,1611470725.6875
25.5,1611470725.703125
25.33,1611470725.71875
25.19,1611470725.734375
24.73,1611470725.75
23.67,1611470725.765625
21.89,1611470725.78125
19.38,1611470725.796875
16.22,1611470725.8125
12.55,1611470725.828125
8.56,1611470725.84375
4.42,1611470725.859375
0.35,1611470725.875
-3.53,1611470725.890625
-7.24,1611470725.90625
-10.91,1611470725.921875
-14.74,1611470725.9375
-18.84,1611470725.953125
-23.08,1611470725.96875
-27.06,1611470725.984375
-30.15,1611470726.0
-31.74,1611470726.015625
-31.43,1611470726.03125
-29.16,1611470726.046875
-25.19,1611470726.0625
-20.01,1611470726.078125
-14.18,1611470726.09375
-8.2,1611470726.109375
-2.56,1611470726.125
2.32,1611470726.140625
6.11,1611470726.15625
8.68,1611470726.171875
10.17,1611470726.1875
10.96,1611470726.203125
11.56,1611470726.21875
12.31,1611470726.234375
13.24,1611470726.25
14.09,1611470726.265625
14.38,1611470726.28125
13.75,1611470726.296875
12.08,1611470726.3125
9.64,1611470726.328125
7.0,1611470726.34375
4.85,1611470726.359375
3.78,1611470726.375
4.14,1611470726.390625
5.97,1611470726.40625
9.03,1611470726.421875
12.92,1611470726.4375
17.1,1611470726.453125
21.05,1611470726.46875
24.21,1611470726.484375
25.95,1611470726.5
25.68,1611470726.515625
22.84,1611470726.53125
17.22,1611470726.546875
9.04,1611470726.5625
-0.91,1611470726.578125
-11.51,1611470726.59375
-21.57,1611470726.609375
-30.19,1611470726.625
-36.93,1611470726.640625
-41.74,1611470726.65625
-44.72,1611470726.671875
-45.91,1611470726.6875
-45.15,1611470726.703125
-42.21,1611470726.71875
-37.06,1611470726.734375
-30.01,1611470726.75
-21.68,1611470726.765625
-12.89,1611470726.78125
-4.39,1611470726.796875
3.27,1611470726.8125
9.76,1611470726.828125
14.84,1611470726.84375
18.28,1611470726.859375
19.85,1611470726.875
19.46,1611470726.890625
17.35,1611470726.90625
14.15,1611470726.921875
10.72,1611470726.9375
7.88,1611470726.953125
6.15,1611470726.96875
5.46,1611470726.984375
5.31,1611470727.0
5.03,1611470727.015625
4.11,1611470727.03125
2.52,1611470727.046875
0.71,1611470727.0625
-0.52,1611470727.078125
-0.3,1611470727.09375
1.99,1611470727.109375
6.49,1611470727.125
12.72,1611470727.140625
19.6,1611470727.15625
25.52,1611470727.171875
28.69,1611470727.1875
27.45,1611470727.203125
20.81,1611470727.21875
8.78,1611470727.234375
-7.46,1611470727.25
-25.66,1611470727.265625
-43.06,1611470727.28125
-56.99,1611470727.296875
-65.59,1611470727.3125
-68.26,1611470727.328125
-65.69,1611470727.34375
-59.6,1611470727.359375
-52.12,1611470727.375
-45.17,1611470727.390625
-39.93,1611470727.40625
-36.68,1611470727.421875
-34.85,1611470727.4375
-33.34,1611470727.453125
-30.93,1611470727.46875
-26.66,1611470727.484375
-20.16,1611470727.5
-11.65,1611470727.515625
-1.95,1611470727.53125
7.83,1611470727.546875
16.59,1611470727.5625
23.52,1611470727.578125
28.43,1611470727.59375
31.79,1611470727.609375
34.53,1611470727.625
37.75,1611470727.640625
42.1,1611470727.65625
47.43,1611470727.671875
52.61,1611470727.6875
55.86,1611470727.703125
55.46,1611470727.71875
50.53,1611470727.734375
41.56,1611470727.75
30.37,1611470727.765625
19.59,1611470727.78125
11.68,1611470727.796875
8.22,1611470727.8125
9.51,1611470727.828125
14.71,1611470727.84375
22.24,1611470727.859375
30.29,1611470727.875
37.08,1611470727.890625
41.09,1611470727.90625
41.12,1611470727.921875
36.46,1611470727.9375
27.22,1611470727.953125
14.44,1611470727.96875
0.05,1611470727.984375
-13.54,1611470728.0
-24.13,1611470728.015625
-30.45,1611470728.03125
-32.48,1611470728.046875
-31.28,1611470728.0625
-28.45,1611470728.078125
-25.43,1611470728.09375
-22.96,1611470728.109375
-20.99,1611470728.125
-18.99,1611470728.140625
-16.39,1611470728.15625
-13.04,1611470728.171875
-9.27,1611470728.1875
-5.87,1611470728.203125
-3.64,1611470728.21875
-3.23,1611470728.234375
-4.88,1611470728.25
-8.41,1611470728.265625
-13.33,1611470728.28125
-18.93,1611470728.296875
-24.51,1611470728.3125
-29.35,1611470728.328125
-32.86,1611470728.34375
-34.57,1611470728.359375
-34.15,1611470728.375
-31.43,1611470728.390625
-26.56,1611470728.40625
-19.96,1611470728.421875
-12.37,1611470728.4375
-4.68,1611470728.453125
2.32,1611470728.46875
8.13,1611470728.484375
12.68,1611470728.5
16.2,1611470728.515625
19.01,1611470728.53125
21.27,1611470728.546875
22.85,1611470728.5625
23.44,1611470728.578125
22.85,1611470728.59375
21.16,1611470728.609375
18.85,1611470728.625
16.6,1611470728.640625
14.92,1611470728.65625
13.89,1611470728.671875
13.04,1611470728.6875
11.58,1611470728.703125
8.82,1611470728.71875
4.52,1611470728.734375
-0.97,1611470728.75
-6.86,1611470728.765625
-12.26,1611470728.78125
-16.53,1611470728.796875
-19.42,1611470728.8125
-21.04,1611470728.828125
-21.65,1611470728.84375
-21.56,1611470728.859375
-21.12,1611470728.875
-20.77,1611470728.890625
-21.0,1611470728.90625
-22.24,1611470728.921875
-24.68,1611470728.9375
-28.08,1611470728.953125
-31.81,1611470728.96875
-34.99,1611470728.984375
-36.77,1611470729.0
-36.48,1611470729.015625
-33.78,1611470729.03125
-28.66,1611470729.046875
-21.51,1611470729.0625
-13.02,1611470729.078125
-4.21,1611470729.09375
3.74,1611470729.109375
9.58,1611470729.125
12.32,1611470729.140625
11.39,1611470729.15625
6.9,1611470729.171875
-0.26,1611470729.1875
-8.48,1611470729.203125
-15.74,1611470729.21875
-20.09,1611470729.234375
-20.25,1611470729.25
-15.96,1611470729.265625
-8.07,1611470729.28125
1.81,1611470729.296875
11.88,1611470729.3125
20.66,1611470729.328125
27.27,1611470729.34375
31.47,1611470729.359375
33.42,1611470729.375
33.46,1611470729.390625
32.04,1611470729.40625
29.6,1611470729.421875
26.66,1611470729.4375
23.75,1611470729.453125
21.33,1611470729.46875
19.72,1611470729.484375
18.96,1611470729.5
18.79,1611470729.515625
18.72,1611470729.53125
18.05,1611470729.546875
16.1,1611470729.5625
12.29,1611470729.578125
6.38,1611470729.59375
-1.5,1611470729.609375
-10.87,1611470729.625
-21.0,1611470729.640625
-30.99,1611470729.65625
-39.86,1611470729.671875
-46.56,1611470729.6875
-50.08,1611470729.703125
-49.59,1611470729.71875
-44.66,1611470729.734375
-35.43,1611470729.75
-22.77,1611470729.765625
-8.08,1611470729.78125
6.93,1611470729.796875
20.61,1611470729.8125
31.59,1611470729.828125
39.06,1611470729.84375
42.69,1611470729.859375
42.68,1611470729.875
39.56,1611470729.890625
34.25,1611470729.90625
27.76,1611470729.921875
21.14,1611470729.9375
15.24,1611470729.953125
10.64,1611470729.96875
7.53,1611470729.984375
5.87,1611470730.0
5.4,1611470730.015625
5.86,1611470730.03125
6.99,1611470730.046875
8.59,1611470730.0625
10.49,1611470730.078125
12.49,1611470730.09375
14.35,1611470730.109375
15.75,1611470730.125
16.39,1611470730.140625
16.03,1611470730.15625
14.6,1611470730.171875
12.21,1611470730.1875
9.15,1611470730.203125
5.73,1611470730.21875
2.19,1611470730.234375
-1.39,1611470730.25
-5.1,1611470730.265625
-9.11,1611470730.28125
-13.55,1611470730.296875
-18.42,1611470730.3125
-23.58,1611470730.328125
-28.68,1611470730.34375
-33.22,1611470730.359375
-36.58,1611470730.375
-38.05,1611470730.390625
-37.01,1611470730.40625
-33.1,1611470730.421875
-26.39,1611470730.4375
-17.43,1611470730.453125
-7.2,1611470730.46875
3.09,1611470730.484375
12.32,1611470730.5
19.67,1611470730.515625
24.73,1611470730.53125
27.52,1611470730.546875
28.33,1611470730.5625
27.61,1611470730.578125
25.81,1611470730.59375
23.43,1611470730.609375
20.93,1611470730.625
18.73,1611470730.640625
17.15,1611470730.65625
16.31,1611470730.671875
16.16,1611470730.6875
16.47,1611470730.703125
17.02,1611470730.71875
17.6,1611470730.734375
18.14,1611470730.75
18.57,1611470730.765625
18.79,1611470730.78125
18.66,1611470730.796875
18.0,1611470730.8125
16.68,1611470730.828125
14.68,1611470730.84375
12.1,1611470730.859375
9.07,1611470730.875
5.76,1611470730.890625
2.31,1611470730.90625
-1.23,1611470730.921875
-4.8,1611470730.9375
-8.43,1611470730.953125
-12.17,1611470730.96875
-16.12,1611470730.984375
-20.38,1611470731.0
-24.95,1611470731.015625
-29.67,1611470731.03125
-34.09,1611470731.046875
-37.51,1611470731.0625
-39.16,1611470731.078125
-38.35,1611470731.09375
-34.73,1611470731.109375
-28.41,1611470731.125
-19.96,1611470731.140625
-10.25,1611470731.15625
-0.24,1611470731.171875
9.19,1611470731.1875
17.31,1611470731.203125
23.62,1611470731.21875
27.75,1611470731.234375
29.61,1611470731.25
29.35,1611470731.265625
27.42,1611470731.28125
24.49,1611470731.296875
21.27,1611470731.3125
18.39,1611470731.328125
16.19,1611470731.34375
14.81,1611470731.359375
14.18,1611470731.375
14.13,1611470731.390625
14.46,1611470731.40625
14.91,1611470731.421875
15.18,1611470731.4375
15.01,1611470731.453125
14.25,1611470731.46875
12.89,1611470731.484375
11.11,1611470731.5
9.12,1611470731.515625
7.08,1611470731.53125
5.05,1611470731.546875
3.01,1611470731.5625
0.91,1611470731.578125
-1.23,1611470731.59375
-3.31,1611470731.609375
-5.3,1611470731.625
-7.32,1611470731.640625
-9.68,1611470731.65625
-12.85,1611470731.671875
-17.18,1611470731.6875
-22.76,1611470731.703125
-29.24,1611470731.71875
-35.8,1611470731.734375
-41.3,1611470731.75
-44.6,1611470731.765625
-44.79,1611470731.78125
-41.49,1611470731.796875
-34.97,1611470731.8125
-26.04,1611470731.828125
-15.93,1611470731.84375
-5.92,1611470731.859375
2.88,1611470731.875
9.77,1611470731.890625
14.51,1611470731.90625
17.27,1611470731.921875
18.59,1611470731.9375
19.05,1611470731.953125
19.23,1611470731.96875
19.45,1611470731.984375
19.76,1611470732.0
20.0,1611470732.015625
19.88,1611470732.03125
19.24,1611470732.046875
18.13,1611470732.0625
16.82,1611470732.078125
15.69,1611470732.09375
15.1,1611470732.109375
15.2,1611470732.125
15.9,1611470732.140625
16.87,1611470732.15625
17.69,1611470732.171875
17.95,1611470732.1875
17.34,1611470732.203125
15.72,1611470732.21875
13.11,1611470732.234375
9.67,1611470732.25
5.68,1611470732.265625
1.45,1611470732.28125
-2.72,1611470732.296875
-6.67,1611470732.3125
-10.43,1611470732.328125
-14.24,1611470732.34375
-18.45,1611470732.359375
-23.35,1611470732.375
-28.96,1611470732.390625
-34.87,1611470732.40625
-40.29,1611470732.421875
-44.16,1611470732.4375
-45.51,1611470732.453125
-43.7,1611470732.46875
-38.68,1611470732.484375
-30.96,1611470732.5
-21.51,1611470732.515625
-11.48,1611470732.53125
-1.94,1611470732.546875
6.28,1611470732.5625
12.69,1611470732.578125
17.1,1611470732.59375
19.59,1611470732.609375
20.38,1611470732.625
19.84,1611470732.640625
18.4,1611470732.65625
16.5,1611470732.671875
14.54,1611470732.6875
12.76,1611470732.703125
11.3,1611470732.71875
10.17,1611470732.734375
9.39,1611470732.75
8.97,1611470732.765625
8.97,1611470732.78125
9.41,1611470732.796875
10.24,1611470732.8125
11.26,1611470732.828125
12.13,1611470732.84375
12.47,1611470732.859375
11.93,1611470732.875
10.32,1611470732.890625
7.6,1611470732.90625
3.99,1611470732.921875
-0.12,1611470732.9375
-4.28,1611470732.953125
-8.03,1611470732.96875
-11.13,1611470732.984375
-13.55,1611470733.0
-15.57,1611470733.015625
-17.61,1611470733.03125
-20.17,1611470733.046875
-23.64,1611470733.0625
-28.2,1611470733.078125
-33.76,1611470733.09375
-39.88,1611470733.109375
-45.87,1611470733.125
-50.83,1611470733.140625
-53.83,1611470733.15625
-54.1,1611470733.171875
-51.22,1611470733.1875
-45.24,1611470733.203125
-36.72,1611470733.21875
-26.6,1611470733.234375
-16.01,1611470733.25
-6.08,1611470733.265625
2.32,1611470733.28125
8.69,1611470733.296875
12.94,1611470733.3125
15.34,1611470733.328125
16.38,1611470733.34375
16.66,1611470733.359375
16.71,1611470733.375
16.91,1611470733.390625
17.47,1611470733.40625
18.47,1611470733.421875
19.88,1611470733.4375
21.66,1611470733.453125
23.71,1611470733.46875
25.86,1611470733.484375
27.9,1611470733.5
29.56,1611470733.515625
30.62,1611470733.53125
30.89,1611470733.546875
30.33,1611470733.5625
28.99,1611470733.578125
27.01,1611470733.59375
24.58,1611470733.609375
21.9,1611470733.625
19.19,1611470733.640625
16.63,1611470733.65625
14.33,1611470733.671875
12.35,1611470733.6875
10.58,1611470733.703125
8.82,1611470733.71875
6.74,1611470733.734375
3.99,1611470733.75
0.33,1611470733.765625
-4.29,1611470733.78125
-9.57,1611470733.796875
-14.87,1611470733.8125
-19.31,1611470733.828125
-21.96,1611470733.84375
-22.03,1611470733.859375
-19.2,1611470733.875
-13.68,1611470733.890625
-6.27,1611470733.90625
1.88,1611470733.921875
9.5,1611470733.9375
15.57,1611470733.953125
19.53,1611470733.96875
21.38,1611470733.984375
21.59,1611470734.0
20.81,1611470734.015625
19.72,1611470734.03125
18.79,1611470734.046875
18.26,1611470734.0625
18.1,1611470734.078125
18.17,1611470734.09375
18.21,1611470734.109375
18.02,1611470734.125
17.53,1611470734.140625
16.88,1611470734.15625
16.35,1611470734.171875
16.23,1611470734.1875
16.67,1611470734.203125
17.55,1611470734.21875
18.52,1611470734.234375
19.11,1611470734.25
18.92,1611470734.265625
17.72,1611470734.28125
15.47,1611470734.296875
12.35,1611470734.3125
8.63,1611470734.328125
4.69,1611470734.34375
0.95,1611470734.359375
-2.19,1611470734.375
-4.46,1611470734.390625
-5.86,1611470734.40625
-6.7,1611470734.421875
-7.49,1611470734.4375
-8.84,1611470734.453125
-11.22,1611470734.46875
-14.78,1611470734.484375
-19.31,1611470734.5
-24.22,1611470734.515625
-28.72,1611470734.53125
-31.95,1611470734.546875
-33.13,1611470734.5625
-31.8,1611470734.578125
-27.8,1611470734.59375
-21.47,1611470734.609375
-13.52,1611470734.625
-4.92,1611470734.640625
3.29,1611470734.65625
10.25,1611470734.671875
15.38,1611470734.6875
18.48,1611470734.703125
19.7,1611470734.71875
19.49,1611470734.734375
18.45,1611470734.75
17.26,1611470734.765625
16.46,1611470734.78125
16.31,1611470734.796875
16.72,1611470734.8125
17.35,1611470734.828125
17.77,1611470734.84375
17.8,1611470734.859375
17.56,1611470734.875
17.48,1611470734.890625
17.99,1611470734.90625
19.17,1611470734.921875
20.67,1611470734.9375
21.75,1611470734.953125
21.71,1611470734.96875
20.1,1611470734.984375
17.01,1611470735.0
12.92,1611470735.015625
8.49,1611470735.03125
4.24,1611470735.046875
0.46,1611470735.0625
-2.85,1611470735.078125
-5.74,1611470735.09375
-8.25,1611470735.109375
-10.32,1611470735.125
-11.81,1611470735.140625
-12.68,1611470735.15625
-13.04,1611470735.171875
-13.2,1611470735.1875
-13.62,1611470735.203125
-14.78,1611470735.21875
-17.01,1611470735.234375
-20.39,1611470735.25
-24.76,1611470735.265625
-29.67,1611470735.28125
-34.51,1611470735.296875
-38.53,1611470735.3125
-41.01,1611470735.328125
-41.26,1611470735.34375
-38.87,1611470735.359375
-33.84,1611470735.375
-26.6,1611470735.390625
-18.05,1611470735.40625
-9.28,1611470735.421875
-1.31,1611470735.4375
5.12,1611470735.453125
9.72,1611470735.46875
12.57,1611470735.484375
14.02,1611470735.5
14.49,1611470735.515625
14.44,1611470735.53125
14.24,1611470735.546875
14.16,1611470735.5625
14.31,1611470735.578125
14.7,1611470735.59375
15.19,1611470735.609375
15.66,1611470735.625
16.01,1611470735.640625
16.28,1611470735.65625
16.56,1611470735.671875
16.98,1611470735.6875
17.54,1611470735.703125
18.13,1611470735.71875
18.58,1611470735.734375
18.68,1611470735.75
18.35,1611470735.765625
17.57,1611470735.78125
16.42,1611470735.796875
14.99,1611470735.8125
13.31,1611470735.828125
11.32,1611470735.84375
8.97,1611470735.859375
6.18,1611470735.875
2.94,1611470735.890625
-0.63,1611470735.90625
-4.36,1611470735.921875
-7.99,1611470735.9375
-11.27,1611470735.953125
-14.03,1611470735.96875
-16.19,1611470735.984375
-17.77,1611470736.0
-18.86,1611470736.015625
-19.62,1611470736.03125
-20.28,1611470736.046875
-21.13,1611470736.0625
-22.49,1611470736.078125
-24.59,1611470736.09375
-27.4,1611470736.109375
-30.45,1611470736.125
-32.95,1611470736.140625
-33.9,1611470736.15625
-32.52,1611470736.171875
-28.5,1611470736.1875
-22.19,1611470736.203125
-14.49,1611470736.21875
-6.5,1611470736.234375
0.75,1611470736.25
6.62,1611470736.265625
10.87,1611470736.28125
13.61,1611470736.296875
15.1,1611470736.3125
15.73,1611470736.328125
15.89,1611470736.34375
15.89,1611470736.359375
15.95,1611470736.375
16.14,1611470736.390625
16.35,1611470736.40625
16.43,1611470736.421875
16.3,1611470736.4375
16.05,1611470736.453125
15.9,1611470736.46875
16.12,1611470736.484375
16.8,1611470736.5
17.85,1611470736.515625
18.98,1611470736.53125
19.91,1611470736.546875
20.49,1611470736.5625
20.67,1611470736.578125
20.44,1611470736.59375
19.7,1611470736.609375
18.18,1611470736.625
15.58,1611470736.640625
11.76,1611470736.65625
6.83,1611470736.671875
1.18,1611470736.6875
-4.62,1611470736.703125
-10.03,1611470736.71875
-14.71,1611470736.734375
-18.5,1611470736.75
-21.46,1611470736.765625
-23.66,1611470736.78125
-25.21,1611470736.796875
-26.24,1611470736.8125
-26.94,1611470736.828125
-27.57,1611470736.84375
-28.45,1611470736.859375
-29.83,1611470736.875
-31.75,1611470736.890625
-34.03,1611470736.90625
-36.26,1611470736.921875
-37.9,1611470736.9375
-38.46,1611470736.953125
-37.58,1611470736.96875
-35.14,1611470736.984375
-31.21,1611470737.0
-26.1,1611470737.015625
-20.26,1611470737.03125
-14.23,1611470737.046875
-8.57,1611470737.0625
-3.77,1611470737.078125
-0.16,1611470737.09375
2.11,1611470737.109375
3.13,1611470737.125
3.2,1611470737.140625
2.75,1611470737.15625
2.28,1611470737.171875
2.16,1611470737.1875
2.55,1611470737.203125
3.36,1611470737.21875
4.29,1611470737.234375
5.09,1611470737.25
5.59,1611470737.265625
5.89,1611470737.28125
6.16,1611470737.296875
6.61,1611470737.3125
7.28,1611470737.328125
8.07,1611470737.34375
8.8,1611470737.359375
9.32,1611470737.375
9.62,1611470737.390625
9.73,1611470737.40625
9.63,1611470737.421875
9.21,1611470737.4375
8.23,1611470737.453125
6.51,1611470737.46875
4.02,1611470737.484375
0.99,1611470737.5
-2.11,1611470737.515625
-4.81,1611470737.53125
-6.73,1611470737.546875
-7.84,1611470737.5625
-8.41,1611470737.578125
-8.89,1611470737.59375
-9.77,1611470737.609375
-11.29,1611470737.625
-13.45,1611470737.640625
-15.93,1611470737.65625
-18.24,1611470737.671875
-19.8,1611470737.6875
-20.08,1611470737.703125
-18.69,1611470737.71875
-15.52,1611470737.734375
-10.69,1611470737.75
-4.68,1611470737.765625
1.8,1611470737.78125
7.92,1611470737.796875
12.94,1611470737.8125
16.41,1611470737.828125
18.23,1611470737.84375
18.7,1611470737.859375
18.43,1611470737.875
18.08,1611470737.890625
18.17,1611470737.90625
18.89,1611470737.921875
20.07,1611470737.9375
21.24,1611470737.953125
21.89,1611470737.96875
21.66,1611470737.984375
20.57,1611470738.0
18.92,1611470738.015625
17.19,1611470738.03125
15.81,1611470738.046875
15.03,1611470738.0625
14.85,1611470738.078125
15.13,1611470738.09375
15.65,1611470738.109375
16.18,1611470738.125
16.48,1611470738.140625
16.3,1611470738.15625
15.38,1611470738.171875
13.61,1611470738.1875
11.0,1611470738.203125
7.75,1611470738.21875
4.17,1611470738.234375
0.59,1611470738.25
-2.74,1611470738.265625
-5.7,1611470738.28125
-8.37,1611470738.296875
-10.94,1611470738.3125
-13.65,1611470738.328125
-16.71,1611470738.34375
-20.16,1611470738.359375
-23.75,1611470738.375
-27.0,1611470738.390625
-29.2,1611470738.40625
-29.68,1611470738.421875
-28.01,1611470738.4375
-24.15,1611470738.453125
-18.6,1611470738.46875
-12.12,1611470738.484375
-5.6,1611470738.5
0.18,1611470738.515625
4.77,1611470738.53125
8.01,1611470738.546875
9.97,1611470738.5625
10.86,1611470738.578125
10.96,1611470738.59375
10.56,1611470738.609375
9.96,1611470738.625
9.43,1611470738.640625
9.1,1611470738.65625
8.96,1611470738.671875
8.83,1611470738.6875
8.51,1611470738.703125
7.88,1611470738.71875
6.99,1611470738.734375
6.12,1611470738.75
5.6,1611470738.765625
5.71,1611470738.78125
6.44,1611470738.796875
7.5,1611470738.8125
8.39,1611470738.828125
8.55,1611470738.84375
7.6,1611470738.859375
5.51,1611470738.875
2.53,1611470738.890625
-0.84,1611470738.90625
-4.18,1611470738.921875
-7.19,1611470738.9375
-9.73,1611470738.953125
-11.83,1611470738.96875
-13.56,1611470738.984375
-14.97,1611470739.0
-16.26,1611470739.015625
-17.68,1611470739.03125
-19.56,1611470739.046875
-22.17,1611470739.0625
-25.55,1611470739.078125
-29.4,1611470739.09375
-33.21,1611470739.109375
-36.36,1611470739.125
-38.27,1611470739.140625
-38.53,1611470739.15625
-36.92,1611470739.171875
-33.4,1611470739.1875
-28.15,1611470739.203125
-21.58,1611470739.21875
-14.36,1611470739.234375
-7.3,1611470739.25
-1.15,1611470739.265625
3.53,1611470739.28125
6.55,1611470739.296875
8.07,1611470739.3125
8.51,1611470739.328125
8.38,1611470739.34375
8.12,1611470739.359375
8.0,1611470739.375
8.11,1611470739.390625
8.4,1611470739.40625
8.8,1611470739.421875
9.32,1611470739.4375
10.01,1611470739.453125
10.93,1611470739.46875
12.03,1611470739.484375
13.15,1611470739.5
14.01,1611470739.515625
14.37,1611470739.53125
14.11,1611470739.546875
13.25,1611470739.5625
11.93,1611470739.578125
10.23,1611470739.59375
8.19,1611470739.609375
5.69,1611470739.625
2.65,1611470739.640625
-0.89,1611470739.65625
-4.7,1611470739.671875
-8.4,1611470739.6875
-11.57,1611470739.703125
-13.94,1611470739.71875
-15.46,1611470739.734375
-16.34,1611470739.75
-17.03,1611470739.765625
-18.06,1611470739.78125
-19.88,1611470739.796875
-22.7,1611470739.8125
-26.39,1611470739.828125
-30.49,1611470739.84375
-34.28,1611470739.859375
-36.88,1611470739.875
-37.51,1611470739.890625
-35.64,1611470739.90625
-31.19,1611470739.921875
-24.59,1611470739.9375
-16.72,1611470739.953125
-8.67,1611470739.96875
-1.46,1611470739.984375
4.25,1611470740.0
8.19,1611470740.015625
10.51,1611470740.03125
11.58,1611470740.046875
11.83,1611470740.0625
11.68,1611470740.078125
11.53,1611470740.09375
11.67,1611470740.109375
12.34,1611470740.125
13.51,1611470740.140625
14.97,1611470740.15625
16.37,1611470740.171875
17.41,1611470740.1875
18.02,1611470740.203125
18.38,1611470740.21875
18.78,1611470740.234375
19.4,1611470740.25
20.25,1611470740.265625
21.08,1611470740.28125
21.6,1611470740.296875
21.63,1611470740.3125
21.16,1611470740.328125
20.24,1611470740.34375
18.84,1611470740.359375
16.78,1611470740.375
13.79,1611470740.390625
9.74,1611470740.40625
4.74,1611470740.421875
-0.75,1611470740.4375
-6.1,1611470740.453125
-10.78,1611470740.46875
-14.6,1611470740.484375
-17.77,1611470740.5
-20.78,1611470740.515625
-24.15,1611470740.53125
-28.2,1611470740.546875
-32.81,1611470740.5625
-37.46,1611470740.578125
-41.39,1611470740.59375
-43.81,1611470740.609375
-44.14,1611470740.625
-42.17,1611470740.640625
-38.06,1611470740.65625
-32.24,1611470740.671875
-25.3,1611470740.6875
-17.89,1611470740.703125
-10.62,1611470740.71875
-4.09,1611470740.734375
1.2,1611470740.75
4.88,1611470740.765625
6.85,1611470740.78125
7.38,1611470740.796875
7.02,1611470740.8125
6.4,1611470740.828125
6.05,1611470740.84375
6.17,1611470740.859375
6.68,1611470740.875
7.32,1611470740.890625
7.86,1611470740.90625
8.27,1611470740.921875
8.62,1611470740.9375
9.03,1611470740.953125
9.55,1611470740.96875
10.09,1611470740.984375
10.49,1611470741.0
10.58,1611470741.015625
10.26,1611470741.03125
9.44,1611470741.046875
8.08,1611470741.0625
6.16,1611470741.078125
3.74,1611470741.09375
0.99,1611470741.109375
-1.81,1611470741.125
-4.33,1611470741.140625
-6.33,1611470741.15625
-7.75,1611470741.171875
-8.78,1611470741.1875
-9.75,1611470741.203125
-11.06,1611470741.21875
-13.08,1611470741.234375
-15.99,1611470741.25
-19.7,1611470741.265625
-23.77,1611470741.28125
-27.49,1611470741.296875
-29.96,1611470741.3125
-30.34,1611470741.328125
-28.06,1611470741.34375
-23.02,1611470741.359375
-15.62,1611470741.375
-6.69,1611470741.390625
2.74,1611470741.40625
11.65,1611470741.421875
19.23,1611470741.4375
24.94,1611470741.453125
28.57,1611470741.46875
30.2,1611470741.484375
30.21,1611470741.5
29.17,1611470741.515625
27.75,1611470741.53125
26.48,1611470741.546875
25.62,1611470741.5625
25.01,1611470741.578125
24.36,1611470741.59375
23.42,1611470741.609375
22.27,1611470741.625
21.27,1611470741.640625
20.9,1611470741.65625
21.45,1611470741.671875
22.79,1611470741.6875
24.41,1611470741.703125
25.67,1611470741.71875
26.04,1611470741.734375
25.32,1611470741.75
23.59,1611470741.765625
21.06,1611470741.78125
18.01,1611470741.796875
14.65,1611470741.8125
11.22,1611470741.828125
7.96,1611470741.84375
5.03,1611470741.859375
2.44,1611470741.875
0.02,1611470741.890625
-2.62,1611470741.90625
-5.88,1611470741.921875
-9.99,1611470741.9375
-14.87,1611470741.953125
-20.14,1611470741.96875
-25.14,1611470741.984375
-29.08,1611470742.0
-31.17,1611470742.015625
-30.84,1611470742.03125
-27.84,1611470742.046875
-22.38,1611470742.0625
-15.06,1611470742.078125
-6.84,1611470742.09375
1.17,1611470742.109375
7.96,1611470742.125
12.76,1611470742.140625
15.24,1611470742.15625
15.53,1611470742.171875
14.2,1611470742.1875
12.1,1611470742.203125
10.08,1611470742.21875
8.77,1611470742.234375
8.42,1611470742.25
8.83,1611470742.265625
9.6,1611470742.28125
10.31,1611470742.296875
10.77,1611470742.3125
11.08,1611470742.328125
11.57,1611470742.34375
12.49,1611470742.359375
13.88,1611470742.375
15.48,1611470742.390625
16.83,1611470742.40625
17.45,1611470742.421875
17.02,1611470742.4375
15.43,1611470742.453125
12.76,1611470742.46875
9.16,1611470742.484375
4.84,1611470742.5
0.08,1611470742.515625
-4.78,1611470742.53125
-9.28,1611470742.546875
-12.97,1611470742.5625
-15.55,1611470742.578125
-17.02,1611470742.59375
-17.74,1611470742.609375
-18.3,1611470742.625
-19.41,1611470742.640625
-21.54,1611470742.65625
-24.8,1611470742.671875
-28.91,1611470742.6875
-33.2,1611470742.703125
-36.88,1611470742.71875
-39.18,1611470742.734375
-39.47,1611470742.75
-37.36,1611470742.765625
-32.76,1611470742.78125
-25.98,1611470742.796875
-17.67,1611470742.8125
-8.88,1611470742.828125
-0.74,1611470742.84375
5.73,1611470742.859375
9.93,1611470742.875
11.83,1611470742.890625
11.92,1611470742.90625
11.0,1611470742.921875
9.94,1611470742.9375
9.4,1611470742.953125
9.73,1611470742.96875
10.94,1611470742.984375
12.74,1611470743.0
14.77,1611470743.015625
16.7,1611470743.03125
18.32,1611470743.046875
19.64,1611470743.0625
20.7,1611470743.078125
21.55,1611470743.09375
22.12,1611470743.109375
22.24,1611470743.125
21.75,1611470743.140625
20.64,1611470743.15625
19.06,1611470743.171875
17.2,1611470743.1875
15.26,1611470743.203125
13.21,1611470743.21875
10.9,1611470743.234375
8.18,1611470743.25
5.03,1611470743.265625
1.7,1611470743.28125
-1.46,1611470743.296875
-4.14,1611470743.3125
-6.31,1611470743.328125
-8.25,1611470743.34375
-10.43,1611470743.359375
-13.3,1611470743.375
-17.02,1611470743.390625
-21.4,1611470743.40625
-25.99,1611470743.421875
-30.21,1611470743.4375
-33.57,1611470743.453125
-35.65,1611470743.46875
-36.11,1611470743.484375
-34.67,1611470743.5
-31.15,1611470743.515625
-25.61,1611470743.53125
-18.49,1611470743.546875
-10.61,1611470743.5625
-2.99,1611470743.578125
3.44,1611470743.59375
8.1,1611470743.609375
10.93,1611470743.625
12.28,1611470743.640625
12.74,1611470743.65625
12.91,1611470743.671875
13.22,1611470743.6875
13.89,1611470743.703125
14.95,1611470743.71875
16.28,1611470743.734375
17.75,1611470743.75
19.17,1611470743.765625
20.46,1611470743.78125
21.56,1611470743.796875
22.49,1611470743.8125
23.25,1611470743.828125
23.8,1611470743.84375
24.02,1611470743.859375
23.78,1611470743.875
22.98,1611470743.890625
21.67,1611470743.90625
19.99,1611470743.921875
18.1,1611470743.9375
16.14,1611470743.953125
14.13,1611470743.96875
11.98,1611470743.984375
9.57,1611470744.0
6.81,1611470744.015625
3.72,1611470744.03125
0.49,1611470744.046875
-2.67,1611470744.0625
-5.48,1611470744.078125
-7.8,1611470744.09375
-9.65,1611470744.109375
-11.29,1611470744.125
-13.15,1611470744.140625
-15.63,1611470744.15625
-18.92,1611470744.171875
-22.92,1611470744.1875
-27.16,1611470744.203125
-31.01,1611470744.21875
-33.81,1611470744.234375
-35.06,1611470744.25
-34.48,1611470744.265625
-31.99,1611470744.28125
-27.66,1611470744.296875
-21.7,1611470744.3125
-14.56,1611470744.328125
-6.86,1611470744.34375
0.63,1611470744.359375
7.15,1611470744.375
12.15,1611470744.390625
15.37,1611470744.40625
16.96,1611470744.421875
17.32,1611470744.4375
16.98,1611470744.453125
16.46,1611470744.46875
16.1,1611470744.484375
16.05,1611470744.5
16.33,1611470744.515625
16.91,1611470744.53125
17.76,1611470744.546875
18.91,1611470744.5625
20.34,1611470744.578125
21.95,1611470744.59375
23.49,1611470744.609375
24.7,1611470744.625
25.33,1611470744.640625
25.34,1611470744.65625
24.87,1611470744.671875
24.16,1611470744.6875
23.39,1611470744.703125
22.59,1611470744.71875
21.57,1611470744.734375
20.13,1611470744.75
18.07,1611470744.765625
15.34,1611470744.78125
12.02,1611470744.796875
8.29,1611470744.8125
4.36,1611470744.828125
0.38,1611470744.84375
-3.49,1611470744.859375
-7.09,1611470744.875
-10.32,1611470744.890625
-13.05,1611470744.90625
-15.24,1611470744.921875
-16.95,1611470744.9375
-18.37,1611470744.953125
-19.8,1611470744.96875
-21.59,1611470744.984375
-24.03,1611470745.0
-27.22,1611470745.015625
-30.98,1611470745.03125
-34.84,1611470745.046875
-38.09,1611470745.0625
-39.94,1611470745.078125
-39.76,1611470745.09375
-37.27,1611470745.109375
-32.64,1611470745.125
-26.46,1611470745.140625
-19.57,1611470745.15625
-12.84,1611470745.171875
-6.93,1611470745.1875
-2.19,1611470745.203125
1.36,1611470745.21875
3.92,1611470745.234375
5.78,1611470745.25
7.22,1611470745.265625
8.45,1611470745.28125
9.57,1611470745.296875
10.57,1611470745.3125
11.37,1611470745.328125
11.84,1611470745.34375
11.94,1611470745.359375
11.76,1611470745.375
11.6,1611470745.390625
11.82,1611470745.40625
12.67,1611470745.421875
14.15,1611470745.4375
15.95,1611470745.453125
17.56,1611470745.46875
18.43,1611470745.484375
18.22,1611470745.5
16.89,1611470745.515625
14.67,1611470745.53125
11.92,1611470745.546875
8.96,1611470745.5625
5.92,1611470745.578125
2.82,1611470745.59375
-0.47,1611470745.609375
-4.01,1611470745.625
-7.71,1611470745.640625
-11.32,1611470745.65625
-14.48,1611470745.671875
-16.92,1611470745.6875
-18.56,1611470745.703125
-19.56,1611470745.71875
-20.3,1611470745.734375
-21.2,1611470745.75
-22.53,1611470745.765625
-24.37,1611470745.78125
-26.62,1611470745.796875
-29.1,1611470745.8125
-31.61,1611470745.828125
-33.91,1611470745.84375
-35.63,1611470745.859375
-36.2,1611470745.875
-34.98,1611470745.890625
-31.45,1611470745.90625
-25.55,1611470745.921875
-17.76,1611470745.9375
-9.11,1611470745.953125
-0.81,1611470745.96875
6.09,1611470745.984375
11.03,1611470746.0
13.97,1611470746.015625
15.33,1611470746.03125
15.76,1611470746.046875
15.91,1611470746.0625
16.26,1611470746.078125
17.05,1611470746.09375
18.29,1611470746.109375
19.79,1611470746.125
21.27,1611470746.140625
22.53,1611470746.15625
23.52,1611470746.171875
24.32,1611470746.1875
25.17,1611470746.203125
26.24,1611470746.21875
27.59,1611470746.234375
29.08,1611470746.25
30.46,1611470746.265625
31.45,1611470746.28125
31.9,1611470746.296875
31.73,1611470746.3125
30.94,1611470746.328125
29.48,1611470746.34375
27.24,1611470746.359375
24.11,1611470746.375
20.07,1611470746.390625
15.37,1611470746.40625
10.39,1611470746.421875
5.61,1611470746.4375
1.38,1611470746.453125
-2.27,1611470746.46875
-5.5,1611470746.484375
-8.67,1611470746.5
-12.02,1611470746.515625
-15.65,1611470746.53125
-19.4,1611470746.546875
-22.99,1611470746.5625
-26.02,1611470746.578125
-27.95,1611470746.59375
-28.24,1611470746.609375
-26.37,1611470746.625
-22.11,1611470746.640625
-15.68,1611470746.65625
-7.88,1611470746.671875
0.13,1611470746.6875
7.14,1611470746.703125
12.28,1611470746.71875
15.26,1611470746.734375
16.34,1611470746.75
16.03,1611470746.765625
14.99,1611470746.78125
13.71,1611470746.796875
12.52,1611470746.8125
11.58,1611470746.828125
10.94,1611470746.84375
10.54,1611470746.859375
10.29,1611470746.875
10.12,1611470746.890625
10.02,1611470746.90625
10.1,1611470746.921875
10.5,1611470746.9375
11.32,1611470746.953125
12.49,1611470746.96875
13.8,1611470746.984375
14.92,1611470747.0
15.51,1611470747.015625
15.36,1611470747.03125
14.36,1611470747.046875
12.5,1611470747.0625
9.83,1611470747.078125
6.51,1611470747.09375
2.73,1611470747.109375
-1.21,1611470747.125
-4.98,1611470747.140625
-8.28,1611470747.15625
-10.96,1611470747.171875
-13.03,1611470747.1875
-14.71,1611470747.203125
-16.37,1611470747.21875
-18.45,1611470747.234375
-21.29,1611470747.25
-25.13,1611470747.265625
-29.94,1611470747.28125
-35.43,1611470747.296875
-41.03,1611470747.3125
-45.96,1611470747.328125
-49.39,1611470747.34375
-50.55,1611470747.359375
-49.01,1611470747.375
-44.7,1611470747.390625
-38.05,1611470747.40625
-29.83,1611470747.421875
-21.06,1611470747.4375
-12.73,1611470747.453125
-5.62,1611470747.46875
-0.15,1611470747.484375
3.65,1611470747.5
6.08,1611470747.515625
7.6,1611470747.53125
8.7,1611470747.546875
9.8,1611470747.5625
11.15,1611470747.578125
12.87,1611470747.59375
14.92,1611470747.609375
17.17,1611470747.625
19.43,1611470747.640625
21.49,1611470747.65625
23.12,1611470747.671875
24.13,1611470747.6875
24.39,1611470747.703125
23.87,1611470747.71875
22.65,1611470747.734375
20.93,1611470747.75
18.97,1611470747.765625
17.06,1611470747.78125
15.37,1611470747.796875
14.0,1611470747.8125
12.83,1611470747.828125
11.66,1611470747.84375
10.2,1611470747.859375
8.24,1611470747.875
5.68,1611470747.890625
2.61,1611470747.90625
-0.78,1611470747.921875
-4.23,1611470747.9375
-7.54,1611470747.953125
-10.67,1611470747.96875
-13.71,1611470747.984375
-16.82,1611470748.0
-20.16,1611470748.015625
-23.73,1611470748.03125
-27.42,1611470748.046875
-30.97,1611470748.0625
-34.02,1611470748.078125
-36.2,1611470748.09375
-37.14,1611470748.109375
-36.55,1611470748.125
-34.27,1611470748.140625
-30.28,1611470748.15625
-24.74,1611470748.171875
-17.99,1611470748.1875
-10.5,1611470748.203125
-2.84,1611470748.21875
4.39,1611470748.234375
10.6,1611470748.25
15.37,1611470748.265625
18.44,1611470748.28125
19.94,1611470748.296875
20.28,1611470748.3125
20.04,1611470748.328125
19.74,1611470748.34375
19.65,1611470748.359375
19.77,1611470748.375
19.94,1611470748.390625
20.01,1611470748.40625
20.01,1611470748.421875
20.1,1611470748.4375
20.47,1611470748.453125
21.17,1611470748.46875
22.06,1611470748.484375
22.79,1611470748.5
23.0,1611470748.515625
22.46,1611470748.53125
21.14,1611470748.546875
19.26,1611470748.5625
17.08,1611470748.578125
14.83,1611470748.59375
12.52,1611470748.609375
9.98,1611470748.625
6.97,1611470748.640625
3.34,1611470748.65625
-0.71,1611470748.671875
-4.77,1611470748.6875
-8.25,1611470748.703125
-10.8,1611470748.71875
-12.48,1611470748.734375
-13.8,1611470748.75
-15.51,1611470748.765625
-18.19,1611470748.78125
-22.01,1611470748.796875
-26.62,1611470748.8125
-31.37,1611470748.828125
-35.5,1611470748.84375
-38.43,1611470748.859375
-39.8,1611470748.875
-39.37,1611470748.890625
-36.98,1611470748.90625
-32.53,1611470748.921875
-26.09,1611470748.9375
-18.06,1611470748.953125
-9.18,1611470748.96875
-0.41,1611470748.984375
7.21,1611470749.0
12.92,1611470749.015625
16.37,1611470749.03125
17.67,1611470749.046875
17.35,1611470749.0625
16.06,1611470749.078125
14.48,1611470749.09375
13.04,1611470749.109375
11.93,1611470749.125
11.15,1611470749.140625
10.62,1611470749.15625
10.34,1611470749.171875
10.37,1611470749.1875
10.82,1611470749.203125
11.75,1611470749.21875
13.1,1611470749.234375
14.62,1611470749.25
16.0,1611470749.265625
16.92,1611470749.28125
17.15,1611470749.296875
16.57,1611470749.3125
15.2,1611470749.328125
13.09,1611470749.34375
10.28,1611470749.359375
6.81,1611470749.375
2.7,1611470749.390625
-1.96,1611470749.40625
-6.95,1611470749.421875
-11.91,1611470749.4375
-16.45,1611470749.453125
-20.23,1611470749.46875
-23.15,1611470749.484375
-25.48,1611470749.5
-27.7,1611470749.515625
-30.42,1611470749.53125
-34.02,1611470749.546875
-38.49,1611470749.5625
-43.36,1611470749.578125
-47.83,1611470749.59375
-50.92,1611470749.609375
-51.8,1611470749.625
-49.92,1611470749.640625
-45.18,1611470749.65625
-37.92,1611470749.671875
-28.94,1611470749.6875
-19.3,1611470749.703125
-10.12,1611470749.71875
-2.34,1611470749.734375
3.42,1611470749.75
6.98,1611470749.765625
8.57,1611470749.78125
8.71,1611470749.796875
8.11,1611470749.8125
7.49,1611470749.828125
7.33,1611470749.84375
7.86,1611470749.859375
9.02,1611470749.875
10.59,1611470749.890625
12.32,1611470749.90625
14.12,1611470749.921875
16.02,1611470749.9375
18.08,1611470749.953125
20.25,1611470749.96875
22.27,1611470749.984375
23.72,1611470750.0
24.2,1611470750.015625
23.42,1611470750.03125
21.41,1611470750.046875
18.39,1611470750.0625
14.77,1611470750.078125
10.94,1611470750.09375
7.28,1611470750.109375
4.06,1611470750.125
1.44,1611470750.140625
-0.58,1611470750.15625
-2.15,1611470750.171875
-3.58,1611470750.1875
-5.25,1611470750.203125
-7.49,1611470750.21875
-10.49,1611470750.234375
-14.14,1611470750.25
-18.07,1611470750.265625
-21.63,1611470750.28125
-24.06,1611470750.296875
-24.68,1611470750.3125
-23.01,1611470750.328125
-18.93,1611470750.34375
-12.72,1611470750.359375
-4.99,1611470750.375
3.44,1611470750.390625
11.66,1611470750.40625
18.86,1611470750.421875
24.45,1611470750.4375
28.16,1611470750.453125
30.12,1611470750.46875
30.78,1611470750.484375
30.76,1611470750.5
30.61,1611470750.515625
30.64,1611470750.53125
30.76,1611470750.546875
30.64,1611470750.5625
29.89,1611470750.578125
28.41,1611470750.59375
26.41,1611470750.609375
24.45,1611470750.625
23.15,1611470750.640625
22.88,1611470750.65625
23.61,1611470750.671875
24.95,1611470750.6875
26.3,1611470750.703125
27.08,1611470750.71875
26.95,1611470750.734375
25.84,1611470750.75
23.9,1611470750.765625
21.43,1611470750.78125
18.71,1611470750.796875
15.95,1611470750.8125
13.24,1611470750.828125
10.49,1611470750.84375
7.41,1611470750.859375
3.69,1611470750.875
-0.95,1611470750.890625
-6.55,1611470750.90625
-12.86,1611470750.921875
-19.3,1611470750.9375
-25.19,1611470750.953125
-29.77,1611470750.96875
-32.4,1611470750.984375
-32.62,1611470751.0
-30.22,1611470751.015625
-25.29,1611470751.03125
-18.31,1611470751.046875
-10.11,1611470751.0625
-1.76,1611470751.078125
5.61,1611470751.09375
11.13,1611470751.109375
14.35,1611470751.125
15.37,1611470751.140625
14.7,1611470751.15625
13.07,1611470751.171875
11.19,1611470751.1875
9.48,1611470751.203125
8.07,1611470751.21875
6.82,1611470751.234375
5.54,1611470751.25
4.15,1611470751.265625
2.86,1611470751.28125
2.05,1611470751.296875
2.04,1611470751.3125
2.92,1611470751.328125
4.34,1611470751.34375
5.63,1611470751.359375
6.07,1611470751.375
5.19,1611470751.390625
2.97,1611470751.40625
-0.23,1611470751.421875
-3.88,1611470751.4375
-7.5,1611470751.453125
-10.86,1611470751.46875
-13.96,1611470751.484375
-16.98,1611470751.5
-20.17,1611470751.515625
-23.72,1611470751.53125
-27.78,1611470751.546875
-32.4,1611470751.5625
-37.45,1611470751.578125
-42.56,1611470751.59375
-47.11,1611470751.609375
-50.3,1611470751.625
-51.34,1611470751.640625
-49.64,1611470751.65625
-45.05,1611470751.671875
-37.79,1611470751.6875
-28.51,1611470751.703125
-18.07,1611470751.71875
-7.47,1611470751.734375
2.35,1611470751.75
10.6,1611470751.765625
16.73,1611470751.78125
20.49,1611470751.796875
22.07,1611470751.8125
21.97,1611470751.828125
20.96,1611470751.84375
19.8,1611470751.859375
19.03,1611470751.875
18.84,1611470751.890625
19.11,1611470751.90625
19.54,1611470751.921875
19.89,1611470751.9375
20.1,1611470751.953125
20.29,1611470751.96875
20.63,1611470751.984375
21.17,1611470752.0
21.74,1611470752.015625
22.02,1611470752.03125
21.64,1611470752.046875
20.37,1611470752.0625
18.19,1611470752.078125
15.22,1611470752.09375
11.76,1611470752.109375
8.13,1611470752.125
4.63,1611470752.140625
1.48,1611470752.15625
-1.26,1611470752.171875
-3.74,1611470752.1875
-6.33,1611470752.203125
-9.5,1611470752.21875
-13.59,1611470752.234375
-18.67,1611470752.25
-24.39,1611470752.265625
-30.08,1611470752.28125
-34.89,1611470752.296875
-38.0,1611470752.3125
-38.79,1611470752.328125
-36.92,1611470752.34375
-32.4,1611470752.359375
-25.6,1611470752.375
-17.18,1611470752.390625
-8.09,1611470752.40625
0.69,1611470752.421875
8.3,1611470752.4375
14.14,1611470752.453125
18.06,1611470752.46875
20.25,1611470752.484375
21.13,1611470752.5
21.23,1611470752.515625
21.03,1611470752.53125
20.79,1611470752.546875
20.64,1611470752.5625
20.54,1611470752.578125
20.47,1611470752.59375
20.44,1611470752.609375
20.6,1611470752.625
21.13,1611470752.640625
22.16,1611470752.65625
23.64,1611470752.671875
25.33,1611470752.6875
26.87,1611470752.703125
27.93,1611470752.71875
28.25,1611470752.734375
27.73,1611470752.75
26.36,1611470752.765625
24.15,1611470752.78125
21.13,1611470752.796875
17.31,1611470752.8125
12.76,1611470752.828125
7.63,1611470752.84375
2.26,1611470752.859375
-2.92,1611470752.875
-7.43,1611470752.890625
-10.91,1611470752.90625
-13.26,1611470752.921875
-14.69,1611470752.9375
-15.75,1611470752.953125
-17.08,1611470752.96875
-19.23,1611470752.984375
-22.4,1611470753.0
-26.33,1611470753.015625
-30.44,1611470753.03125
-33.91,1611470753.046875
-35.97,1611470753.0625
-36.04,1611470753.078125
-33.82,1611470753.09375
-29.41,1611470753.109375
-23.29,1611470753.125
-16.27,1611470753.140625
-9.23,1611470753.15625
-2.98,1611470753.171875
1.97,1611470753.1875
5.5,1611470753.203125
7.76,1611470753.21875
9.06,1611470753.234375
9.74,1611470753.25
10.1,1611470753.265625
10.4,1611470753.28125
10.89,1611470753.296875
11.75,1611470753.3125
13.08,1611470753.328125
14.83,1611470753.34375
16.81,1611470753.359375
18.68,1611470753.375
20.08,1611470753.390625
20.7,1611470753.40625
20.39,1611470753.421875
19.19,1611470753.4375
17.35,1611470753.453125
15.24,1611470753.46875
13.21,1611470753.484375
11.51,1611470753.5
10.17,1611470753.515625
9.02,1611470753.53125
7.78,1611470753.546875
6.2,1611470753.5625
4.15,1611470753.578125
1.64,1611470753.59375
-1.21,1611470753.609375
-4.26,1611470753.625
-7.36,1611470753.640625
-10.33,1611470753.65625
-13.0,1611470753.671875
-15.25,1611470753.6875
-17.07,1611470753.703125
-18.6,1611470753.71875
-20.14,1611470753.734375
-22.11,1611470753.75
-24.8,1611470753.765625
-28.31,1611470753.78125
-32.41,1611470753.796875
-36.6,1611470753.8125
-40.19,1611470753.828125
-42.41,1611470753.84375
-42.61,1611470753.859375
-40.37,1611470753.875
-35.57,1611470753.890625
-28.52,1611470753.90625
-19.87,1611470753.921875
-10.52,1611470753.9375
-1.43,1611470753.953125
6.59,1611470753.96875
13.01,1611470753.984375
17.61,1611470754.0
20.52,1611470754.015625
22.05,1611470754.03125
22.69,1611470754.046875
22.97,1611470754.0625
23.3,1611470754.078125
23.89,1611470754.09375
24.63,1611470754.109375
25.21,1611470754.125
25.33,1611470754.140625
24.86,1611470754.15625
24.04,1611470754.171875
23.37,1611470754.1875
23.35,1611470754.203125
24.22,1611470754.21875
25.85,1611470754.234375
27.77,1611470754.25
29.41,1611470754.265625
30.35,1611470754.28125
30.47,1611470754.296875
29.9,1611470754.3125
28.81,1611470754.328125
27.3,1611470754.34375
25.3,1611470754.359375
22.72,1611470754.375
19.6,1611470754.390625
16.16,1611470754.40625
12.8,1611470754.421875
9.92,1611470754.4375
7.79,1611470754.453125
6.32,1611470754.46875
5.13,1611470754.484375
3.66,1611470754.5
1.36,1611470754.515625
-2.06,1611470754.53125
-6.55,1611470754.546875
-11.7,1611470754.5625
-16.82,1611470754.578125
-21.03,1611470754.59375
-23.48,1611470754.609375
-23.5,1611470754.625
-20.75,1611470754.640625
-15.31,1611470754.65625
-7.73,1611470754.671875
1.08,1611470754.6875
10.03,1611470754.703125
17.98,1611470754.71875
24.01,1611470754.734375
27.51,1611470754.75
28.38,1611470754.765625
26.97,1611470754.78125
24.08,1611470754.796875
20.67,1611470754.8125
17.67,1611470754.828125
15.65,1611470754.84375
14.76,1611470754.859375
14.77,1611470754.875
15.27,1611470754.890625
15.93,1611470754.90625
16.66,1611470754.921875
17.58,1611470754.9375
18.84,1611470754.953125
20.43,1611470754.96875
22.14,1611470754.984375
23.57,1611470755.0
24.31,1611470755.015625
24.1,1611470755.03125
22.91,1611470755.046875
20.93,1611470755.0625
18.42,1611470755.078125
15.67,1611470755.09375
12.84,1611470755.109375
10.01,1611470755.125
7.12,1611470755.140625
4.1,1611470755.15625
0.89,1611470755.171875
-2.49,1611470755.1875
-5.93,1611470755.203125
-9.24,1611470755.21875
-12.24,1611470755.234375
-14.83,1611470755.25
-17.0,1611470755.265625
-18.87,1611470755.28125
-20.6,1611470755.296875
-22.37,1611470755.3125
-24.39,1611470755.328125
-26.82,1611470755.34375
-29.8,1611470755.359375
-33.32,1611470755.375
-37.12,1611470755.390625
-40.64,1611470755.40625
-43.17,1611470755.421875
-43.98,1611470755.4375
-42.59,1611470755.453125
-38.94,1611470755.46875
-33.34,1611470755.484375
-26.46,1611470755.5
-19.03,1611470755.515625
-11.84,1611470755.53125
-5.45,1611470755.546875
-0.25,1611470755.5625
3.59,1611470755.578125
6.19,1611470755.59375
7.8,1611470755.609375
8.76,1611470755.625
9.38,1611470755.640625
9.86,1611470755.65625
10.28,1611470755.671875
10.64,1611470755.6875
10.88,1611470755.703125
11.04,1611470755.71875
11.24,1611470755.734375
11.61,1611470755.75
12.29,1611470755.765625
13.32,1611470755.78125
14.57,1611470755.796875
15.79,1611470755.8125
16.67,1611470755.828125
16.95,1611470755.84375
16.52,1611470755.859375
15.45,1611470755.875
13.93,1611470755.890625
12.18,1611470755.90625
10.33,1611470755.921875
8.36,1611470755.9375
6.17,1611470755.953125
3.68,1611470755.96875
0.95,1611470755.984375
-1.85,1611470756.0
-4.47,1611470756.015625
-6.79,1611470756.03125
-8.82,1611470756.046875
-10.69,1611470756.0625
-12.55,1611470756.078125
-14.48,1611470756.09375
-16.39,1611470756.109375
-18.24,1611470756.125
-20.04,1611470756.140625
-21.94,1611470756.15625
-24.19,1611470756.171875
-26.95,1611470756.1875
-30.18,1611470756.203125
-33.53,1611470756.21875
-36.39,1611470756.234375
-37.99,1611470756.25
-37.67,1611470756.265625
-35.01,1611470756.28125
-29.98,1611470756.296875
-23.02,1611470756.3125
-14.91,1611470756.328125
-6.64,1611470756.34375
0.81,1611470756.359375
6.72,1611470756.375
10.77,1611470756.390625
13.02,1611470756.40625
13.87,1611470756.421875
13.87,1611470756.4375
13.56,1611470756.453125
13.32,1611470756.46875
13.29,1611470756.484375
13.39,1611470756.5
13.43,1611470756.515625
13.33,1611470756.53125
13.22,1611470756.546875
13.47,1611470756.5625
14.51,1611470756.578125
16.68,1611470756.59375
19.97,1611470756.609375
23.98,1611470756.625
28.05,1611470756.640625
31.39,1611470756.65625
33.27,1611470756.671875
33.21,1611470756.6875
31.08,1611470756.703125
27.11,1611470756.71875
21.82,1611470756.734375
15.89,1611470756.75
9.94,1611470756.765625
4.45,1611470756.78125
-0.31,1611470756.796875
-4.19,1611470756.8125
-7.08,1611470756.828125
-8.85,1611470756.84375
-9.43,1611470756.859375
-8.94,1611470756.875
-7.79,1611470756.890625
-6.55,1611470756.90625
-5.81,1611470756.921875
-5.96,1611470756.9375
-7.12,1611470756.953125
-9.23,1611470756.96875
-12.2,1611470756.984375
-16.03,1611470757.0
-20.81,1611470757.015625
-26.52,1611470757.03125
-32.83,1611470757.046875
-39.03,1611470757.0625
-44.11,1611470757.078125
-46.98,1611470757.09375
-46.84,1611470757.109375
-43.34,1611470757.125
-36.72,1611470757.140625
-27.72,1611470757.15625
-17.5,1611470757.171875
-7.45,1611470757.1875
0.98,1611470757.203125
6.61,1611470757.21875
8.8,1611470757.234375
7.68,1611470757.25
4.11,1611470757.265625
-0.55,1611470757.28125
-4.9,1611470757.296875
-7.9,1611470757.3125
-9.12,1611470757.328125
-8.69,1611470757.34375
-6.99,1611470757.359375
-4.44,1611470757.375
-1.29,1611470757.390625
2.28,1611470757.40625
6.03,1611470757.421875
9.59,1611470757.4375
12.51,1611470757.453125
14.42,1611470757.46875
15.16,1611470757.484375
14.79,1611470757.5
13.45,1611470757.515625
11.18,1611470757.53125
7.81,1611470757.546875
3.09,1611470757.5625
-3.07,1611470757.578125
-10.33,1611470757.59375
-17.91,1611470757.609375
-24.75,1611470757.625
-29.85,1611470757.640625
-32.64,1611470757.65625
-33.12,1611470757.671875
-31.78,1611470757.6875
-29.41,1611470757.703125
-26.9,1611470757.71875
-24.95,1611470757.734375
-24.1,1611470757.75
-24.58,1611470757.765625
-26.3,1611470757.78125
-28.81,1611470757.796875
-31.38,1611470757.8125
-33.14,1611470757.828125
-33.32,1611470757.84375
-31.47,1611470757.859375
-27.5,1611470757.875
-21.73,1611470757.890625
-14.64,1611470757.90625
-6.89,1611470757.921875
0.92,1611470757.9375
8.17,1611470757.953125
14.35,1611470757.96875
19.03,1611470757.984375
22.07,1611470758.0
23.59,1611470758.015625
24.03,1611470758.03125
24.05,1611470758.046875
24.22,1611470758.0625
24.87,1611470758.078125
25.94,1611470758.09375
27.08,1611470758.109375
27.84,1611470758.125
28.01,1611470758.140625
27.73,1611470758.15625
27.42,1611470758.171875
27.55,1611470758.1875
28.33,1611470758.203125
29.59,1611470758.21875
30.85,1611470758.234375
31.56,1611470758.25
31.37,1611470758.265625
30.26,1611470758.28125
28.49,1611470758.296875
26.34,1611470758.3125
24.0,1611470758.328125
21.46,1611470758.34375
18.63,1611470758.359375
15.53,1611470758.375
12.32,1611470758.390625
9.27,1611470758.40625
6.6,1611470758.421875
4.23,1611470758.4375
1.85,1611470758.453125
-0.95,1611470758.46875
-4.46,1611470758.484375
-8.55,1611470758.5
-12.69,1611470758.515625
-16.06,1611470758.53125
-17.9,1611470758.546875
-17.69,1611470758.5625
-15.35,1611470758.578125
-11.2,1611470758.59375
-5.84,1611470758.609375
0.02,1611470758.625
5.73,1611470758.640625
10.71,1611470758.65625
14.54,1611470758.671875
16.98,1611470758.6875
17.96,1611470758.703125
17.63,1611470758.71875
16.38,1611470758.734375
14.77,1611470758.75
13.34,1611470758.765625
12.37,1611470758.78125
11.76,1611470758.796875
11.11,1611470758.8125
9.9,1611470758.828125
7.86,1611470758.84375
5.13,1611470758.859375
2.28,1611470758.875
-0.01,1611470758.890625
-1.24,1611470758.90625
-1.28,1611470758.921875
-0.4,1611470758.9375
0.91,1611470758.953125
2.19,1611470758.96875
3.09,1611470758.984375
3.35,1611470759.0
2.75,1611470759.015625
1.09,1611470759.03125
-1.69,1611470759.046875
-5.42,1611470759.0625
-9.62,1611470759.078125
-13.61,1611470759.09375
-16.77,1611470759.109375
-18.75,1611470759.125
-19.67,1611470759.140625
-20.11,1611470759.15625
-20.82,1611470759.171875
-22.52,1611470759.1875
-25.54,1611470759.203125
-29.76,1611470759.21875
-34.59,1611470759.234375
-39.23,1611470759.25
-42.74,1611470759.265625
-44.36,1611470759.28125
-43.55,1611470759.296875
-40.2,1611470759.3125
-34.62,1611470759.328125
-27.55,1611470759.34375
-19.99,1611470759.359375
-12.96,1611470759.375
-7.31,1611470759.390625
-3.48,1611470759.40625
-1.41,1611470759.421875
-0.7,1611470759.4375
-0.66,1611470759.453125
-0.66,1611470759.46875
-0.26,1611470759.484375
0.65,1611470759.5
1.86,1611470759.515625
3.05,1611470759.53125
4.01,1611470759.546875
4.76,1611470759.5625
5.58,1611470759.578125
6.79,1611470759.59375
8.5,1611470759.609375
10.49,1611470759.625
12.29,1611470759.640625
13.38,1611470759.65625
13.41,1611470759.671875
12.34,1611470759.6875
10.32,1611470759.703125
7.6,1611470759.71875
4.38,1611470759.734375
0.83,1611470759.75
-2.87,1611470759.765625
-6.43,1611470759.78125
-9.55,1611470759.796875
-11.94,1611470759.8125
-13.61,1611470759.828125
-14.78,1611470759.84375
-15.98,1611470759.859375
-17.77,1611470759.875
-20.56,1611470759.890625
-24.43,1611470759.90625
-29.03,1611470759.921875
-33.69,1611470759.9375
-37.47,1611470759.953125
-39.46,1611470759.96875
-38.96,1611470759.984375
-35.73,1611470760.0
-29.98,1611470760.015625
-22.44,1611470760.03125
-14.13,1611470760.046875
-6.09,1611470760.0625
0.75,1611470760.078125
5.84,1611470760.09375
8.96,1611470760.109375
10.25,1611470760.125
10.07,1611470760.140625
8.96,1611470760.15625
7.57,1611470760.171875
6.49,1611470760.1875
6.13,1611470760.203125
6.62,1611470760.21875
7.75,1611470760.234375
9.15,1611470760.25
10.5,1611470760.265625
11.69,1611470760.28125
12.84,1611470760.296875
14.15,1611470760.3125
15.67,1611470760.328125
17.17,1611470760.34375
18.22,1611470760.359375
18.42,1611470760.375
17.58,1611470760.390625
15.8,1611470760.40625
13.41,1611470760.421875
10.77,1611470760.4375
8.12,1611470760.453125
5.59,1611470760.46875
3.22,1611470760.484375
1.06,1611470760.5
-0.83,1611470760.515625
-2.42,1611470760.53125
-3.79,1611470760.546875
-5.2,1611470760.5625
-7.02,1611470760.578125
-9.59,1611470760.59375
-13.11,1611470760.609375
-17.51,1611470760.625
-22.44,1611470760.640625
-27.35,1611470760.65625
-31.5,1611470760.671875
-34.2,1611470760.6875
-34.81,1611470760.703125
-32.98,1611470760.71875
-28.78,1611470760.734375
-22.71,1611470760.75
-15.65,1611470760.765625
-8.68,1611470760.78125
-2.76,1611470760.796875
1.53,1611470760.8125
4.08,1611470760.828125
5.23,1611470760.84375
5.53,1611470760.859375
5.57,1611470760.875
5.73,1611470760.890625
6.14,1611470760.90625
6.65,1611470760.921875
7.04,1611470760.9375
7.1,1611470760.953125
6.81,1611470760.96875
6.44,1611470760.984375
6.39,1611470761.0
7.02,1611470761.015625
8.48,1611470761.03125
10.53,1611470761.046875
12.65,1611470761.0625
14.21,1611470761.078125
14.71,1611470761.09375
13.94,1611470761.109375
11.98,1611470761.125
9.11,1611470761.140625
5.63,1611470761.15625
1.85,1611470761.171875
-1.93,1611470761.1875
-5.38,1611470761.203125
-8.18,1611470761.21875
-10.07,1611470761.234375
-11.04,1611470761.25
-11.38,1611470761.265625
-11.71,1611470761.28125
-12.76,1611470761.296875
-15.17,1611470761.3125
-19.17,1611470761.328125
-24.48,1611470761.34375
-30.32,1611470761.359375
-35.6,1611470761.375
-39.21,1611470761.390625
-40.32,1611470761.40625
-38.5,1611470761.421875
-33.81,1611470761.4375
-26.74,1611470761.453125
-18.06,1611470761.46875
-8.69,1611470761.484375
0.46,1611470761.5
8.62,1611470761.515625
15.24,1611470761.53125
19.97,1611470761.546875
22.77,1611470761.5625
23.81,1611470761.578125
23.53,1611470761.59375
22.55,1611470761.609375
21.48,1611470761.625
20.83,1611470761.640625
20.81,1611470761.65625
21.32,1611470761.671875
22.15,1611470761.6875
23.13,1611470761.703125
24.27,1611470761.71875
25.71,1611470761.734375
27.56,1611470761.75
29.74,1611470761.765625
31.89,1611470761.78125
33.52,1611470761.796875
34.29,1611470761.8125
34.05,1611470761.828125
32.99,1611470761.84375
31.38,1611470761.859375
29.51,1611470761.875
27.51,1611470761.890625
25.42,1611470761.90625
23.22,1611470761.921875
20.9,1611470761.9375
18.39,1611470761.953125
15.56,1611470761.96875
12.21,1611470761.984375
8.15,1611470762.0
3.35,1611470762.015625
-1.98,1611470762.03125
-7.41,1611470762.046875
-12.39,1611470762.0625
-16.37,1611470762.078125
-18.82,1611470762.09375
-19.31,1611470762.109375
-17.53,1611470762.125
-13.38,1611470762.140625
-7.12,1611470762.15625
0.6,1611470762.171875
8.82,1611470762.1875
16.49,1611470762.203125
22.75,1611470762.21875
27.14,1611470762.234375
29.61,1611470762.25
30.47,1611470762.265625
30.18,1611470762.28125
29.2,1611470762.296875
27.95,1611470762.3125
26.65,1611470762.328125
25.41,1611470762.34375
24.18,1611470762.359375
22.88,1611470762.375
21.52,1611470762.390625
20.27,1611470762.40625
19.4,1611470762.421875
19.16,1611470762.4375
19.59,1611470762.453125
20.49,1611470762.46875
21.43,1611470762.484375
21.96,1611470762.5
21.71,1611470762.515625
20.51,1611470762.53125
18.36,1611470762.546875
15.35,1611470762.5625
11.63,1611470762.578125
7.38,1611470762.59375
2.87,1611470762.609375
-1.59,1611470762.625
-5.62,1611470762.640625
-8.97,1611470762.65625
-11.52,1611470762.671875
-13.43,1611470762.6875
-15.08,1611470762.703125
-17.02,1611470762.71875
-19.71,1611470762.734375
-23.41,1611470762.75
-27.97,1611470762.765625
-32.88,1611470762.78125
-37.35,1611470762.796875
-40.57,1611470762.8125
-41.87,1611470762.828125
-40.88,1611470762.84375
-37.59,1611470762.859375
-32.35,1611470762.875
-25.73,1611470762.890625
-18.51,1611470762.90625
-11.47,1611470762.921875
-5.29,1611470762.9375
-0.44,1611470762.953125
2.89,1611470762.96875
4.81,1611470762.984375
5.66,1611470763.0
5.93,1611470763.015625
6.11,1611470763.03125
6.51,1611470763.046875
7.24,1611470763.0625
8.16,1611470763.078125
9.04,1611470763.09375
9.74,1611470763.109375
10.32,1611470763.125
10.98,1611470763.140625
11.98,1611470763.15625
13.35,1611470763.171875
14.85,1611470763.1875
16.06,1611470763.203125
16.54,1611470763.21875
16.09,1611470763.234375
14.77,1611470763.25
12.87,1611470763.265625
10.62,1611470763.28125
8.15,1611470763.296875
5.42,1611470763.3125
2.39,1611470763.328125
-0.93,1611470763.34375
-4.39,1611470763.359375
-7.73,1611470763.375
-10.72,1611470763.390625
-13.26,1611470763.40625
-15.36,1611470763.421875
-17.18,1611470763.4375
-18.9,1611470763.453125
-20.69,1611470763.46875
-22.63,1611470763.484375
-24.73,1611470763.5
-26.91,1611470763.515625
-29.06,1611470763.53125
-31.07,1611470763.546875
-32.89,1611470763.5625
-34.48,1611470763.578125
-35.74,1611470763.59375
-36.42,1611470763.609375
-36.15,1611470763.625
-34.53,1611470763.640625
-31.24,1611470763.65625
-26.28,1611470763.671875
-20.03,1611470763.6875
-13.14,1611470763.703125
-6.4,1611470763.71875
-0.52,1611470763.734375
4.04,1611470763.75
7.14,1611470763.765625
8.94,1611470763.78125
9.82,1611470763.796875
10.29,1611470763.8125
10.85,1611470763.828125
11.87,1611470763.84375
13.48,1611470763.859375
15.57,1611470763.875
17.91,1611470763.890625
20.18,1611470763.90625
22.25,1611470763.921875
24.05,1611470763.9375
25.66,1611470763.953125
27.12,1611470763.96875
28.41,1611470763.984375
29.42,1611470764.0
29.99,1611470764.015625
30.03,1611470764.03125
29.5,1611470764.046875
28.41,1611470764.0625
26.81,1611470764.078125
24.74,1611470764.09375
22.24,1611470764.109375
19.44,1611470764.125
16.48,1611470764.140625
13.56,1611470764.15625
10.82,1611470764.171875
8.32,1611470764.1875
6.04,1611470764.203125
3.92,1611470764.21875
1.92,1611470764.234375
0.07,1611470764.25
-1.55,1611470764.265625
-2.81,1611470764.28125
-3.61,1611470764.296875
-3.95,1611470764.3125
-4.01,1611470764.328125
-4.11,1611470764.34375
-4.69,1611470764.359375
-6.2,1611470764.375
-8.94,1611470764.390625
-13.0,1611470764.40625
-18.09,1611470764.421875
-23.57,1611470764.4375
-28.49,1611470764.453125
-31.76,1611470764.46875
-32.48,1611470764.484375
-30.21,1611470764.5
-25.1,1611470764.515625
-18.0,1611470764.53125
-10.11,1611470764.546875
-2.69,1611470764.5625
3.25,1611470764.578125
7.23,1611470764.59375
9.25,1611470764.609375
9.66,1611470764.625
9.02,1611470764.640625
7.98,1611470764.65625
7.08,1611470764.671875
6.7,1611470764.6875
7.02,1611470764.703125
7.9,1611470764.71875
9.08,1611470764.734375
10.24,1611470764.75
11.23,1611470764.765625
12.13,1611470764.78125
13.15,1611470764.796875
14.43,1611470764.8125
15.91,1611470764.828125
17.24,1611470764.84375
17.91,1611470764.859375
17.55,1611470764.875
16.03,1611470764.890625
13.55,1611470764.90625
10.54,1611470764.921875
7.39,1611470764.9375
4.33,1611470764.953125
1.35,1611470764.96875
-1.68,1611470764.984375
-4.9,1611470765.0
-8.3,1611470765.015625
-11.7,1611470765.03125
-14.86,1611470765.046875
-17.6,1611470765.0625
-19.85,1611470765.078125
-21.7,1611470765.09375
-23.21,1611470765.109375
-24.39,1611470765.125
-25.17,1611470765.140625
-25.58,1611470765.15625
-25.79,1611470765.171875
-26.15,1611470765.1875
-27.05,1611470765.203125
-28.72,1611470765.21875
-31.08,1611470765.234375
-33.81,1611470765.25
-36.45,1611470765.265625
-38.55,1611470765.28125
-39.75,1611470765.296875
-39.73,1611470765.3125
-38.23,1611470765.328125
-35.06,1611470765.34375
-30.25,1611470765.359375
-24.22,1611470765.375
-17.7,1611470765.390625
-11.62,1611470765.40625
-6.74,1611470765.421875
-3.44,1611470765.4375
-1.57,1611470765.453125
-0.57,1611470765.46875
0.25,1611470765.484375
1.5,1611470765.5
3.48,1611470765.515625
6.09,1611470765.53125
8.93,1611470765.546875
11.49,1611470765.5625
13.4,1611470765.578125
14.55,1611470765.59375
15.18,1611470765.609375
15.69,1611470765.625
16.45,1611470765.640625
17.62,1611470765.65625
19.08,1611470765.671875
20.54,1611470765.6875
21.69,1611470765.703125
22.32,1611470765.71875
22.4,1611470765.734375
21.97,1611470765.75
21.11,1611470765.765625
19.9,1611470765.78125
18.37,1611470765.796875
16.52,1611470765.8125
14.41,1611470765.828125
12.08,1611470765.84375
9.64,1611470765.859375
7.28,1611470765.875
5.2,1611470765.890625
3.52,1611470765.90625
2.22,1611470765.921875
1.07,1611470765.9375
-0.27,1611470765.953125
-2.04,1611470765.96875
-4.27,1611470765.984375
-6.72,1611470766.0
-8.97,1611470766.015625
-10.65,1611470766.03125
-11.45,1611470766.046875
-11.23,1611470766.0625
-9.88,1611470766.078125
-7.32,1611470766.09375
-3.51,1611470766.109375
1.4,1611470766.125
6.98,1611470766.140625
12.5,1611470766.15625
17.16,1611470766.171875
20.36,1611470766.1875
21.91,1611470766.203125
22.11,1611470766.21875
21.64,1611470766.234375
21.2,1611470766.25
21.26,1611470766.265625
21.93,1611470766.28125
22.91,1611470766.296875
23.79,1611470766.3125
24.17,1611470766.328125
23.96,1611470766.34375
23.3,1611470766.359375
22.51,1611470766.375
21.85,1611470766.390625
21.38,1611470766.40625
20.96,1611470766.421875
20.36,1611470766.4375
19.43,1611470766.453125
18.19,1611470766.46875
16.77,1611470766.484375
15.26,1611470766.5
13.65,1611470766.515625
11.74,1611470766.53125
9.28,1611470766.546875
6.17,1611470766.5625
2.5,1611470766.578125
-1.37,1611470766.59375
-5.02,1611470766.609375
-8.14,1611470766.625
-10.66,1611470766.640625
-12.8,1611470766.65625
-14.93,1611470766.671875
-17.42,1611470766.6875
-20.46,1611470766.703125
-24.06,1611470766.71875
-28.07,1611470766.734375
-32.15,1611470766.75
-35.89,1611470766.765625
-38.73,1611470766.78125
-40.03,1611470766.796875
-39.26,1611470766.8125
-36.13,1611470766.828125
-30.79,1611470766.84375
-23.86,1611470766.859375
-16.34,1611470766.875
-9.27,1611470766.890625
-3.5,1611470766.90625
0.52,1611470766.921875
2.82,1611470766.9375
3.78,1611470766.953125
3.93,1611470766.96875
3.84,1611470766.984375
3.91,1611470767.0
4.34,1611470767.015625
5.12,1611470767.03125
6.05,1611470767.046875
6.91,1611470767.0625
7.61,1611470767.078125
8.23,1611470767.09375
8.95,1611470767.109375
9.93,1611470767.125
11.12,1611470767.140625
12.22,1611470767.15625
12.81,1611470767.171875
12.57,1611470767.1875
11.45,1611470767.203125
9.67,1611470767.21875
7.58,1611470767.234375
5.45,1611470767.25
3.34,1611470767.265625
1.13,1611470767.28125
-1.29,1611470767.296875
-3.94,1611470767.3125
-6.61,1611470767.328125
-8.99,1611470767.34375
-10.83,1611470767.359375
-12.11,1611470767.375
-13.1,1611470767.390625
-14.28,1611470767.40625
-16.18,1611470767.421875
-19.13,1611470767.4375
-23.13,1611470767.453125
-27.78,1611470767.46875
-32.34,1611470767.484375
-35.94,1611470767.5
-37.72,1611470767.515625
-37.12,1611470767.53125
-33.98,1611470767.546875
-28.62,1611470767.5625
-21.73,1611470767.578125
-14.23,1611470767.59375
-7.08,1611470767.609375
-1.01,1611470767.625
3.54,1611470767.640625
6.52,1611470767.65625
8.15,1611470767.671875
8.85,1611470767.6875
9.04,1611470767.703125
9.06,1611470767.71875
9.12,1611470767.734375
9.26,1611470767.75
9.39,1611470767.765625
9.43,1611470767.78125
9.35,1611470767.796875
9.22,1611470767.8125
9.27,1611470767.828125
9.72,1611470767.84375
10.71,1611470767.859375
12.18,1611470767.875
13.87,1611470767.890625
15.38,1611470767.90625
16.33,1611470767.921875
16.45,1611470767.9375
15.67,1611470767.953125
14.09,1611470767.96875
11.95,1611470767.984375
9.43,1611470768.0
6.73,1611470768.015625
3.97,1611470768.03125
1.23,1611470768.046875
-1.42,1611470768.0625
-3.95,1611470768.078125
-6.34,1611470768.09375
-8.67,1611470768.109375
-11.08,1611470768.125
-13.81,1611470768.140625
-17.05,1611470768.15625
-20.87,1611470768.171875
-25.09,1611470768.1875
-29.28,1611470768.203125
-32.82,1611470768.21875
-35.03,1611470768.234375
-35.31,1611470768.25
-33.29,1611470768.265625
-28.94,1611470768.28125
-22.58,1611470768.296875
-14.91,1611470768.3125
-6.82,1611470768.328125
0.71,1611470768.34375
6.86,1611470768.359375
11.13,1611470768.375
13.42,1611470768.390625
14.07,1611470768.40625
13.7,1611470768.421875
13.05,1611470768.4375
12.74,1611470768.453125
13.12,1611470768.46875
14.17,1611470768.484375
15.59,1611470768.5
17.01,1611470768.515625
18.15,1611470768.53125
18.96,1611470768.546875
19.53,1611470768.5625
20.03,1611470768.578125
20.47,1611470768.59375
20.7,1611470768.609375
20.48,1611470768.625
19.63,1611470768.640625
18.15,1611470768.65625
16.17,1611470768.671875
13.83,1611470768.6875
11.15,1611470768.703125
8.0,1611470768.71875
4.23,1611470768.734375
-0.2,1611470768.75
-5.06,1611470768.765625
-9.92,1611470768.78125
-14.29,1611470768.796875
-17.83,1611470768.8125
-20.52,1611470768.828125
-22.62,1611470768.84375
-24.61,1611470768.859375
-26.98,1611470768.875
-30.03,1611470768.890625
-33.77,1611470768.90625
-37.85,1611470768.921875
-41.61,1611470768.9375
-44.23,1611470768.953125
-44.88,1611470768.96875
-43.01,1611470768.984375
-38.48,1611470769.0
-31.67,1611470769.015625
-23.41,1611470769.03125
-14.78,1611470769.046875
-6.85,1611470769.0625
-0.5,1611470769.078125
3.82,1611470769.09375
6.08,1611470769.109375
6.66,1611470769.125
6.22,1611470769.140625
5.52,1611470769.15625
5.18,1611470769.171875
5.51,1611470769.1875
6.52,1611470769.203125
7.9,1611470769.21875
9.31,1611470769.234375
10.44,1611470769.25
11.23,1611470769.265625
11.72,1611470769.28125
12.1,1611470769.296875
12.45,1611470769.3125
12.8,1611470769.328125
13.05,1611470769.34375
13.15,1611470769.359375
13.02,1611470769.375
12.57,1611470769.390625
11.75,1611470769.40625
10.5,1611470769.421875
8.87,1611470769.4375
6.96,1611470769.453125
4.92,1611470769.46875
2.88,1611470769.484375
0.85,1611470769.5
-1.31,1611470769.515625
-3.82,1611470769.53125
-6.83,1611470769.546875
-10.35,1611470769.5625
-14.21,1611470769.578125
-18.04,1611470769.59375
-21.38,1611470769.609375
-23.67,1611470769.625
-24.31,1611470769.640625
-22.81,1611470769.65625
-18.86,1611470769.671875
-12.5,1611470769.6875
-4.2,1611470769.703125
5.12,1611470769.71875
14.3,1611470769.734375
22.2,1611470769.75
28.0,1611470769.765625
31.38,1611470769.78125
32.57,1611470769.796875
32.2,1611470769.8125
31.01,1611470769.828125
29.61,1611470769.84375
28.27,1611470769.859375
26.96,1611470769.875
25.46,1611470769.890625
23.68,1611470769.90625
21.71,1611470769.921875
19.94,1611470769.9375
18.79,1611470769.953125
18.5,1611470769.96875
19.1,1611470769.984375
20.29,1611470770.0
21.66,1611470770.015625
22.79,1611470770.03125
23.38,1611470770.046875
23.18,1611470770.0625
22.13,1611470770.078125
20.28,1611470770.09375
17.86,1611470770.109375
15.18,1611470770.125
12.54,1611470770.140625
10.08,1611470770.15625
7.68,1611470770.171875
5.02,1611470770.1875
1.75,1611470770.203125
-2.27,1611470770.21875
-6.91,1611470770.234375
-11.81,1611470770.25
-16.42,1611470770.265625
-20.22,1611470770.28125
-22.63,1611470770.296875
-23.13,1611470770.3125
-21.29,1611470770.328125
-16.96,1611470770.34375
-10.35,1611470770.359375
-2.21,1611470770.375
6.36,1611470770.390625
14.13,1611470770.40625
20.06,1611470770.421875
23.59,1611470770.4375
24.73,1611470770.453125
24.0,1611470770.46875
22.23,1611470770.484375
20.24,1611470770.5
18.66,1611470770.515625
17.69,1611470770.53125
17.24,1611470770.546875
17.01,1611470770.5625
16.73,1611470770.578125
16.32,1611470770.59375
15.94,1611470770.609375
15.83,1611470770.625
16.13,1611470770.640625
16.73,1611470770.65625
17.24,1611470770.671875
17.14,1611470770.6875
15.98,1611470770.703125
13.55,1611470770.71875
9.99,1611470770.734375
5.7,1611470770.75
1.22,1611470770.765625
-2.95,1611470770.78125
-6.52,1611470770.796875
-9.4,1611470770.8125
-11.74,1611470770.828125
-13.77,1611470770.84375
-15.77,1611470770.859375
-17.95,1611470770.875
-20.5,1611470770.890625
-23.52,1611470770.90625
-27.07,1611470770.921875
-31.07,1611470770.9375
-35.15,1611470770.953125
-38.65,1611470770.96875
-40.62,1611470770.984375
-40.16,1611470771.0
-36.75,1611470771.015625
-30.49,1611470771.03125
-22.24,1611470771.046875
-13.26,1611470771.0625
-4.91,1611470771.078125
1.84,1611470771.09375
6.57,1611470771.109375
9.35,1611470771.125
10.61,1611470771.140625
10.84,1611470771.15625
10.44,1611470771.171875
9.7,1611470771.1875
8.78,1611470771.203125
7.8,1611470771.21875
6.81,1611470771.234375
5.9,1611470771.25
5.2,1611470771.265625
4.97,1611470771.28125
5.52,1611470771.296875
7.08,1611470771.3125
9.64,1611470771.328125
12.86,1611470771.34375
16.04,1611470771.359375
18.38,1611470771.375
19.2,1611470771.390625
18.18,1611470771.40625
15.44,1611470771.421875
11.47,1611470771.4375
6.97,1611470771.453125
2.65,1611470771.46875
-0.98,1611470771.484375
-3.68,1611470771.5
-5.56,1611470771.515625
-6.95,1611470771.53125
-8.33,1611470771.546875
-10.17,1611470771.5625
-12.76,1611470771.578125
-16.23,1611470771.59375
-20.42,1611470771.609375
-24.96,1611470771.625
-29.27,1611470771.640625
-32.58,1611470771.65625
-34.12,1611470771.671875
-33.26,1611470771.6875
-29.72,1611470771.703125
-23.7,1611470771.71875
-15.97,1611470771.734375
-7.63,1611470771.75
0.13,1611470771.765625
6.39,1611470771.78125
10.61,1611470771.796875
12.79,1611470771.8125
13.25,1611470771.828125
12.56,1611470771.84375
11.33,1611470771.859375
10.1,1611470771.875
9.27,1611470771.890625
9.02,1611470771.90625
9.35,1611470771.921875
10.05,1611470771.9375
10.89,1611470771.953125
11.68,1611470771.96875
12.42,1611470771.984375
13.22,1611470772.0
14.22,1611470772.015625
15.4,1611470772.03125
16.52,1611470772.046875
17.22,1611470772.0625
17.15,1611470772.078125
16.18,1611470772.09375
14.45,1611470772.109375
12.28,1611470772.125
9.97,1611470772.140625
7.71,1611470772.15625
5.48,1611470772.171875
3.18,1611470772.1875
0.79,1611470772.203125
-1.6,1611470772.21875
-3.79,1611470772.234375
-5.65,1611470772.25
-7.2,1611470772.265625
-8.73,1611470772.28125
-10.63,1611470772.296875
-13.21,1611470772.3125
-16.59,1611470772.328125
-20.53,1611470772.34375
-24.56,1611470772.359375
-28.07,1611470772.375
-30.44,1611470772.390625
-31.23,1611470772.40625
-30.13,1611470772.421875
-27.1,1611470772.4375
-22.36,1611470772.453125
-16.33,1611470772.46875
-9.65,1611470772.484375
-3.07,1611470772.5
2.67,1611470772.515625
6.99,1611470772.53125
9.57,1611470772.546875
10.44,1611470772.5625
9.91,1611470772.578125
8.61,1611470772.59375
7.23,1611470772.609375
6.39,1611470772.625
6.39,1611470772.640625
7.19,1611470772.65625
8.44,1611470772.671875
9.72,1611470772.6875
10.77,1611470772.703125
11.59,1611470772.71875
12.38,1611470772.734375
13.36,1611470772.75
14.54,1611470772.765625
15.69,1611470772.78125
16.43,1611470772.796875
16.4,1611470772.8125
15.43,1611470772.828125
13.53,1611470772.84375
10.81,1611470772.859375
7.37,1611470772.875
3.22,1611470772.890625
-1.57,1611470772.90625
-6.78,1611470772.921875
-11.97,1611470772.9375
-16.56,1611470772.953125
-20.0,1611470772.96875
-22.01,1611470772.984375
-22.76,1611470773.0
-22.76,1611470773.015625
-22.8,1611470773.03125
-23.61,1611470773.046875
-25.65,1611470773.0625
-28.96,1611470773.078125
-33.12,1611470773.09375
-37.33,1611470773.109375
-40.68,1611470773.125
-42.22,1611470773.140625
-41.25,1611470773.15625
-37.46,1611470773.171875
-31.04,1611470773.1875
-22.69,1611470773.203125
-13.53,1611470773.21875
-4.85,1611470773.234375
2.23,1611470773.25
7.01,1611470773.265625
9.42,1611470773.28125
9.94,1611470773.296875
9.42,1611470773.3125
8.68,1611470773.328125
8.32,1611470773.34375
8.47,1611470773.359375
8.9,1611470773.375
9.22,1611470773.390625
9.13,1611470773.40625
8.63,1611470773.421875
7.99,1611470773.4375
7.54,1611470773.453125
7.58,1611470773.46875
8.11,1611470773.484375
8.92,1611470773.5
9.71,1611470773.515625
10.23,1611470773.53125
10.42,1611470773.546875
10.33,1611470773.5625
10.02,1611470773.578125
9.47,1611470773.59375
8.57,1611470773.609375
7.26,1611470773.625
5.55,1611470773.640625
3.68,1611470773.65625
1.86,1611470773.671875
0.25,1611470773.6875
-1.22,1611470773.703125
-2.79,1611470773.71875
-4.73,1611470773.734375
-7.19,1611470773.75
-10.01,1611470773.765625
-12.79,1611470773.78125
-14.93,1611470773.796875
-15.85,1611470773.8125
-15.08,1611470773.828125
-12.39,1611470773.84375
-7.8,1611470773.859375
-1.61,1611470773.875
5.62,1611470773.890625
13.12,1611470773.90625
20.0,1611470773.921875
25.45,1611470773.9375
28.87,1611470773.953125
30.11,1611470773.96875
29.51,1611470773.984375
27.77,1611470774.0
25.68,1611470774.015625
23.8,1611470774.03125
22.29,1611470774.046875
20.96,1611470774.0625
19.47,1611470774.078125
17.66,1611470774.09375
15.71,1611470774.109375
14.08,1611470774.125
13.26,1611470774.140625
13.5,1611470774.15625
14.64,1611470774.171875
16.17,1611470774.1875
17.49,1611470774.203125
18.13,1611470774.21875
17.9,1611470774.234375
16.94,1611470774.25
15.55,1611470774.265625
14.09,1611470774.28125
12.83,1611470774.296875
11.86,1611470774.3125
11.02,1611470774.328125
9.93,1611470774.34375
8.1,1611470774.359375
5.13,1611470774.375
0.92,1611470774.390625
-4.25,1611470774.40625
-9.76,1611470774.421875
-14.92,1611470774.4375
-19.05,1611470774.453125
-21.68,1611470774.46875
-22.47,1611470774.484375
-21.15,1611470774.5
-17.54,1611470774.515625
-11.67,1611470774.53125
-3.98,1611470774.546875
4.62,1611470774.5625
12.89,1611470774.578125
19.55,1611470774.59375
23.69,1611470774.609375
25.04,1611470774.625
24.02,1611470774.640625
21.45,1611470774.65625
18.34,1611470774.671875
15.43,1611470774.6875
13.12,1611470774.703125
11.43,1611470774.71875
10.15,1611470774.734375
9.05,1611470774.75
8.02,1611470774.765625
7.18,1611470774.78125
6.76,1611470774.796875
6.96,1611470774.8125
7.82,1611470774.828125
9.12,1611470774.84375
10.43,1611470774.859375
11.27,1611470774.875
11.26,1611470774.890625
10.18,1611470774.90625
7.98,1611470774.921875
4.78,1611470774.9375
0.85,1611470774.953125
-3.48,1611470774.96875
-7.77,1611470774.984375
-11.61,1611470775.0
-14.73,1611470775.015625
-17.03,1611470775.03125
-18.68,1611470775.046875
-20.02,1611470775.0625
-21.54,1611470775.078125
-23.68,1611470775.09375
-26.72,1611470775.109375
-30.56,1611470775.125
-34.7,1611470775.140625
-38.26,1611470775.15625
-40.11,1611470775.171875
-39.32,1611470775.1875
-35.41,1611470775.203125
-28.68,1611470775.21875
-20.12,1611470775.234375
-11.2,1611470775.25
-3.39,1611470775.265625
2.22,1611470775.28125
5.2,1611470775.296875
5.82,1611470775.3125
4.86,1611470775.328125
3.32,1611470775.34375
2.13,1611470775.359375
1.87,1611470775.375
2.62,1611470775.390625
4.03,1611470775.40625
5.46,1611470775.421875
6.35,1611470775.4375
6.43,1611470775.453125
5.88,1611470775.46875
5.23,1611470775.484375
5.04,1611470775.5
5.73,1611470775.515625
7.29,1611470775.53125
9.35,1611470775.546875
11.24,1611470775.5625
12.23,1611470775.578125
11.79,1611470775.59375
9.71,1611470775.609375
6.21,1611470775.625
1.86,1611470775.640625
-2.58,1611470775.65625
-6.46,1611470775.671875
-9.45,1611470775.6875
-11.65,1611470775.703125
-13.48,1611470775.71875
-15.47,1611470775.734375
-17.95,1611470775.75
-20.93,1611470775.765625
-24.17,1611470775.78125
-27.25,1611470775.796875
-29.8,1611470775.8125
-31.49,1611470775.828125
-32.01,1611470775.84375
-30.99,1611470775.859375
-28.08,1611470775.875
-23.08,1611470775.890625
-16.14,1611470775.90625
-7.94,1611470775.921875
0.39,1611470775.9375
7.5,1611470775.953125
12.24,1611470775.96875
14.02,1611470775.984375
13.04,1611470776.0
10.21,1611470776.015625
6.85,1611470776.03125
4.19,1611470776.046875
2.95,1611470776.0625
3.2,1611470776.078125
4.52,1611470776.09375
6.34,1611470776.109375
8.31,1611470776.125
10.4,1611470776.140625
12.82,1611470776.15625
15.64,1611470776.171875
18.52,1611470776.1875
20.75,1611470776.203125
21.47,1611470776.21875
20.09,1611470776.234375
16.69,1611470776.25
12.02,1611470776.265625
7.24,1611470776.28125
3.43,1611470776.296875
1.16,1611470776.3125
0.35,1611470776.328125
0.37,1611470776.34375
0.4,1611470776.359375
-0.26,1611470776.375
-1.95,1611470776.390625
-4.66,1611470776.40625
-8.19,1611470776.421875
-12.32,1611470776.4375
-16.85,1611470776.453125
-21.55,1611470776.46875
-25.96,1611470776.484375
-29.35,1611470776.5
-30.83,1611470776.515625
-29.63,1611470776.53125
-25.46,1611470776.546875
-18.66,1611470776.5625
-10.17,1611470776.578125
-1.31,1611470776.59375
6.63,1611470776.609375
12.66,1611470776.625
16.23,1611470776.640625
17.31,1611470776.65625
16.32,1611470776.671875
13.91,1611470776.6875
10.9,1611470776.703125
8.04,1611470776.71875
5.87,1611470776.734375
4.66,1611470776.75
4.42,1611470776.765625
5.0,1611470776.78125
6.19,1611470776.796875
7.85,1611470776.8125
9.81,1611470776.828125
11.81,1611470776.84375
13.46,1611470776.859375
14.21,1611470776.875
13.63,1611470776.890625
11.59,1611470776.90625
8.41,1611470776.921875
4.79,1611470776.9375
1.56,1611470776.953125
-0.73,1611470776.96875
-2.01,1611470776.984375
-2.71,1611470777.0
-3.57,1611470777.015625
-5.23,1611470777.03125
-7.99,1611470777.046875
-11.76,1611470777.0625
-16.2,1611470777.078125
-20.88,1611470777.09375
-25.5,1611470777.109375
-29.67,1611470777.125
-32.9,1611470777.140625
-34.47,1611470777.15625
-33.59,1611470777.171875
-29.72,1611470777.1875
-22.94,1611470777.203125
-14.04,1611470777.21875
-4.4,1611470777.234375
4.48,1611470777.25
11.37,1611470777.265625
15.67,1611470777.28125
17.41,1611470777.296875
17.09,1611470777.3125
15.41,1611470777.328125
12.96,1611470777.34375
10.2,1611470777.359375
7.37,1611470777.375
4.75,1611470777.390625
2.63,1611470777.40625
1.43,1611470777.421875
1.46,1611470777.4375
2.88,1611470777.453125
5.45,1611470777.46875
8.6,1611470777.484375
11.54,1611470777.5
13.53,1611470777.515625
14.07,1611470777.53125
13.13,1611470777.546875
11.03,1611470777.5625
8.36,1611470777.578125
5.67,1611470777.59375
3.35,1611470777.609375
1.46,1611470777.625
-0.19,1611470777.640625
-1.96,1611470777.65625
-4.19,1611470777.671875
-7.06,1611470777.6875
-10.57,1611470777.703125
-14.57,1611470777.71875
-18.82,1611470777.734375
-23.01,1611470777.75
-26.74,1611470777.765625
-29.46,1611470777.78125
-30.49,1611470777.796875
-29.23,1611470777.8125
-25.39,1611470777.828125
-19.19,1611470777.84375
-11.47,1611470777.859375
-3.43,1611470777.875
3.7,1611470777.890625
8.97,1611470777.90625
11.96,1611470777.921875
12.79,1611470777.9375
11.93,1611470777.953125
10.0,1611470777.96875
7.51,1611470777.984375
4.81,1611470778.0
2.07,1611470778.015625
-0.5,1611470778.03125
-2.66,1611470778.046875
-4.06,1611470778.0625
-4.33,1611470778.078125
-3.35,1611470778.09375
-1.3,1611470778.109375
1.21,1611470778.125
3.42,1611470778.140625
4.59,1611470778.15625
4.34,1611470778.171875
2.72,1611470778.1875
0.16,1611470778.203125
-2.78,1611470778.21875
-5.63,1611470778.234375
-8.15,1611470778.25
-10.33,1611470778.265625
-12.34,1611470778.28125
-14.42,1611470778.296875
-16.76,1611470778.3125
-19.57,1611470778.328125
-22.93,1611470778.34375
-26.85,1611470778.359375
-31.2,1611470778.375
-35.66,1611470778.390625
-39.72,1611470778.40625
-42.7,1611470778.421875
-43.86,1611470778.4375
-42.61,1611470778.453125
-38.67,1611470778.46875
-32.19,1611470778.484375
-23.83,1611470778.5
-14.64,1611470778.515625
-5.87,1611470778.53125
1.35,1611470778.546875
6.23,1611470778.5625
8.58,1611470778.578125
8.79,1611470778.59375
7.65,1611470778.609375
6.02,1611470778.625
4.56,1611470778.640625
3.54,1611470778.65625
2.97,1611470778.671875
2.77,1611470778.6875
2.96,1611470778.703125
3.73,1611470778.71875
5.28,1611470778.734375
7.54,1611470778.75
10.11,1611470778.765625
12.35,1611470778.78125
13.61,1611470778.796875
13.66,1611470778.8125
12.72,1611470778.828125
11.37,1611470778.84375
10.26,1611470778.859375
9.72,1611470778.875
9.61,1611470778.890625
9.43,1611470778.90625
8.59,1611470778.921875
6.67,1611470778.9375
3.66,1611470778.953125
-0.11,1611470778.96875
-4.01,1611470778.984375
-7.4,1611470779.0
-9.71,1611470779.015625
-10.53,1611470779.03125
-9.6,1611470779.046875
-6.79,1611470779.0625
-2.23,1611470779.078125
3.78,1611470779.09375
10.66,1611470779.109375
17.63,1611470779.125
23.87,1611470779.140625
28.69,1611470779.15625
31.76,1611470779.171875
33.12,1611470779.1875
33.2,1611470779.203125
32.59,1611470779.21875
31.79,1611470779.234375
31.05,1611470779.25
30.39,1611470779.265625
29.68,1611470779.28125
28.89,1611470779.296875
28.15,1611470779.3125
27.73,1611470779.328125
27.86,1611470779.34375
28.61,1611470779.359375
29.78,1611470779.375
31.04,1611470779.390625
32.03,1611470779.40625
32.54,1611470779.421875
32.62,1611470779.4375
32.48,1611470779.453125
32.33,1611470779.46875
32.29,1611470779.484375
32.29,1611470779.5
32.13,1611470779.515625
31.54,1611470779.53125
30.41,1611470779.546875
28.83,1611470779.5625
27.14,1611470779.578125
25.81,1611470779.59375
25.31,1611470779.609375
25.94,1611470779.625
27.82,1611470779.640625
31.0,1611470779.65625
35.56,1611470779.671875
41.72,1611470779.6875
49.83,1611470779.703125
60.19,1611470779.71875
72.89,1611470779.734375
87.6,1611470779.75
103.45,1611470779.765625
118.94,1611470779.78125
132.06,1611470779.796875
140.66,1611470779.8125
142.94,1611470779.828125
138.17,1611470779.84375
126.93,1611470779.859375
111.22,1611470779.875
93.91,1611470779.890625
77.85,1611470779.90625
65.07,1611470779.921875
56.22,1611470779.9375
50.61,1611470779.953125
46.72,1611470779.96875
42.89,1611470779.984375
37.93,1611470780.0
31.11,1611470780.015625
22.07,1611470780.03125
10.42,1611470780.046875
-4.34,1611470780.0625
-22.61,1611470780.078125
-44.31,1611470780.09375
-68.5,1611470780.109375
-93.44,1611470780.125
-116.93,1611470780.140625
-136.98,1611470780.15625
-152.38,1611470780.171875
-162.94,1611470780.1875
-169.25,1611470780.203125
-172.27,1611470780.21875
-172.81,1611470780.234375
-171.25,1611470780.25
-167.62,1611470780.265625
-161.75,1611470780.28125
-153.57,1611470780.296875
-143.27,1611470780.3125
-131.37,1611470780.328125
-118.66,1611470780.34375
-106.06,1611470780.359375
-94.47,1611470780.375
-84.61,1611470780.390625
-76.91,1611470780.40625
-71.38,1611470780.421875
-67.61,1611470780.4375
-64.87,1611470780.453125
-62.34,1611470780.46875
-59.4,1611470780.484375
-55.84,1611470780.5
-51.88,1611470780.515625
-48.07,1611470780.53125
-44.89,1611470780.546875
-42.51,1611470780.5625
-40.67,1611470780.578125
-38.81,1611470780.59375
-36.33,1611470780.609375
-32.89,1611470780.625
-28.54,1611470780.640625
-23.66,1611470780.65625
-18.79,1611470780.671875
-14.39,1611470780.6875
-10.66,1611470780.703125
-7.53,1611470780.71875
-4.79,1611470780.734375
-2.21,1611470780.75
0.31,1611470780.765625
2.69,1611470780.78125
4.75,1611470780.796875
6.24,1611470780.8125
6.94,1611470780.828125
6.78,1611470780.84375
5.82,1611470780.859375
4.28,1611470780.875
2.58,1611470780.890625
1.33,1611470780.90625
1.23,1611470780.921875
2.97,1611470780.9375
7.0,1611470780.953125
13.37,1611470780.96875
21.62,1611470780.984375
30.85,1611470781.0
39.94,1611470781.015625
47.83,1611470781.03125
53.75,1611470781.046875
57.37,1611470781.0625
58.8,1611470781.078125
58.53,1611470781.09375
57.13,1611470781.109375
55.2,1611470781.125
53.15,1611470781.140625
51.25,1611470781.15625
49.64,1611470781.171875
48.44,1611470781.1875
47.79,1611470781.203125
47.78,1611470781.21875
48.37,1611470781.234375
49.3,1611470781.25
50.08,1611470781.265625
50.1,1611470781.28125
48.86,1611470781.296875
46.13,1611470781.3125
42.01,1611470781.328125
36.98,1611470781.34375
31.67,1611470781.359375
26.66,1611470781.375
22.33,1611470781.390625
18.72,1611470781.40625
15.54,1611470781.421875
12.29,1611470781.4375
8.44,1611470781.453125
3.62,1611470781.46875
-2.26,1611470781.484375
-8.95,1611470781.5
-15.94,1611470781.515625
-22.54,1611470781.53125
-27.97,1611470781.546875
-31.43,1611470781.5625
-32.24,1611470781.578125
-29.96,1611470781.59375
-24.61,1611470781.609375
-16.84,1611470781.625
-7.88,1611470781.640625
0.69,1611470781.65625
7.31,1611470781.671875
10.88,1611470781.6875
10.99,1611470781.703125
8.04,1611470781.71875
3.01,1611470781.734375
-2.84,1611470781.75
-8.34,1611470781.765625
-12.61,1611470781.78125
-15.23,1611470781.796875
-16.1,1611470781.8125
-15.44,1611470781.828125
-13.56,1611470781.84375
-10.88,1611470781.859375
-7.89,1611470781.875
-5.17,1611470781.890625
-3.27,1611470781.90625
-2.67,1611470781.921875
-3.64,1611470781.9375
-6.13,1611470781.953125
-9.83,1611470781.96875
-14.24,1611470781.984375
-18.81,1611470782.0
-23.04,1611470782.015625
-26.49,1611470782.03125
-28.86,1611470782.046875
-30.03,1611470782.0625
-30.14,1611470782.078125
-29.58,1611470782.09375
-28.98,1611470782.109375
-29.03,1611470782.125
-30.28,1611470782.140625
-32.91,1611470782.15625
-36.7,1611470782.171875
-40.96,1611470782.1875
-44.7,1611470782.203125
-46.85,1611470782.21875
-46.47,1611470782.234375
-43.03,1611470782.25
-36.56,1611470782.265625
-27.68,1611470782.28125
-17.45,1611470782.296875
-7.11,1611470782.3125
2.18,1611470782.328125
9.56,1611470782.34375
14.63,1611470782.359375
17.37,1611470782.375
18.13,1611470782.390625
17.5,1611470782.40625
16.18,1611470782.421875
14.77,1611470782.4375
13.71,1611470782.453125
13.19,1611470782.46875
13.26,1611470782.484375
13.9,1611470782.5
15.09,1611470782.515625
16.8,1611470782.53125
18.87,1611470782.546875
20.96,1611470782.5625
22.59,1611470782.578125
23.31,1611470782.59375
22.92,1611470782.609375
21.57,1611470782.625
19.67,1611470782.640625
17.74,1611470782.65625
16.14,1611470782.671875
15.03,1611470782.6875
14.28,1611470782.703125
13.65,1611470782.71875
12.83,1611470782.734375
11.52,1611470782.75
9.49,1611470782.765625
6.61,1611470782.78125
2.95,1611470782.796875
-1.21,1611470782.8125
-5.37,1611470782.828125
-8.86,1611470782.84375
-11.02,1611470782.859375
-11.25,1611470782.875
-9.12,1611470782.890625
-4.52,1611470782.90625
2.31,1611470782.921875
10.7,1611470782.9375
19.6,1611470782.953125
27.79,1611470782.96875
34.07,1611470782.984375
37.65,1611470783.0
38.31,1611470783.015625
36.46,1611470783.03125
33.05,1611470783.046875
29.22,1611470783.0625
25.94,1611470783.078125
23.68,1611470783.09375
22.37,1611470783.109375
21.53,1611470783.125
20.67,1611470783.140625
19.56,1611470783.15625
18.38,1611470783.171875
17.61,1611470783.1875
17.64,1611470783.203125
18.55,1611470783.21875
19.98,1611470783.234375
21.3,1611470783.25
21.88,1611470783.265625
21.42,1611470783.28125
20.01,1611470783.296875
18.06,1611470783.3125
16.08,1611470783.328125
14.44,1611470783.34375
13.19,1611470783.359375
12.07,1611470783.375
10.6,1611470783.390625
8.33,1611470783.40625
4.93,1611470783.421875
0.34,1611470783.4375
-5.17,1611470783.453125
-11.17,1611470783.46875
-17.08,1611470783.484375
-22.26,1611470783.5
-26.06,1611470783.515625
-27.8,1611470783.53125
-26.94,1611470783.546875
-23.24,1611470783.5625
-16.92,1611470783.578125
-8.76,1611470783.59375
0.08,1611470783.609375
8.26,1611470783.625
14.68,1611470783.640625
18.67,1611470783.65625
20.13,1611470783.671875
19.5,1611470783.6875
17.57,1611470783.703125
15.17,1611470783.71875
12.97,1611470783.734375
11.27,1611470783.75
10.09,1611470783.765625
9.31,1611470783.78125
8.79,1611470783.796875
8.56,1611470783.8125
8.76,1611470783.828125
9.46,1611470783.84375
10.57,1611470783.859375
11.76,1611470783.875
12.52,1611470783.890625
12.41,1611470783.90625
11.12,1611470783.921875
8.66,1611470783.9375
5.26,1611470783.953125
1.31,1611470783.96875
-2.82,1611470783.984375
-6.79,1611470784.0
-10.36,1611470784.015625
-13.45,1611470784.03125
-16.09,1611470784.046875
-18.47,1611470784.0625
-20.87,1611470784.078125
-23.61,1611470784.09375
-26.92,1611470784.109375
-30.84,1611470784.125
-35.1,1611470784.140625
-39.1,1611470784.15625
