PPG GREEN,time
2175598.0,1611470706.314
2176180.0,1611470706.353
2177322.0,1611470706.394
2178048.0,1611470706.436
2179220.0,1611470706.472
2180544.0,1611470706.512
2180535.0,1611470706.554
2178755.0,1611470706.593
2176340.0,1611470706.634
2174256.0,1611470706.674
2173032.0,1611470706.713
2172023.0,1611470706.754
2171751.0,1611470706.798
2171800.0,1611470706.838
2171808.0,1611470706.877
2171506.0,1611470706.918
2171566.0,1611470706.957
2171972.0,1611470706.997
2172601.0,1611470707.039
2173417.0,1611470707.077
2174305.0,1611470707.117
2175657.0,1611470707.159
2176584.0,1611470707.198
2177803.0,1611470707.238
2178931.0,1611470707.279
2179957.0,1611470707.318
2178687.0,1611470707.358
2176113.0,1611470707.399
2173730.0,1611470707.439
2172536.0,1611470707.478
2171354.0,1611470707.519
2170438.0,1611470707.558
2170262.0,1611470707.598
2170415.0,1611470707.64
2170374.0,1611470707.678
2170452.0,1611470707.719
2170329.0,1611470707.76
2171050.0,1611470707.799
2171504.0,1611470707.84
2172555.0,1611470707.88
2173702.0,1611470707.919
2174649.0,1611470707.959
2175792.0,1611470708.0
2177031.0,1611470708.04
2178257.0,1611470708.079
2179873.0,1611470708.121
2179205.0,1611470708.16
2176979.0,1611470708.201
2174766.0,1611470708.242
2173536.0,1611470708.281
2172752.0,1611470708.321
2172158.0,1611470708.362
2171921.0,1611470708.402
2172128.0,1611470708.443
2172209.0,1611470708.481
2172214.0,1611470708.52
2172543.0,1611470708.561
2173199.0,1611470708.602
2173871.0,1611470708.642
2174846.0,1611470708.681
2175934.0,1611470708.722
2177282.0,1611470708.762
2178273.0,1611470708.802
2179769.0,1611470708.844
2181202.0,1611470708.88
2182576.0,1611470708.92
2183744.0,1611470708.962
2182777.0,1611470709.001
2180637.0,1611470709.042
2178932.0,1611470709.081
2178039.0,1611470709.112
2177813.0,1611470709.153
2177420.0,1611470709.194
2177588.0,1611470709.233
2177825.0,1611470709.273
2178097.0,1611470709.314
2178263.0,1611470709.353
2178989.0,1611470709.393
2179764.0,1611470709.435
2180530.0,1611470709.473
2182888.0,1611470709.554
2181739.0,1611470709.513
2183963.0,1611470709.594
2185181.0,1611470709.634
2186696.0,1611470709.675
2187728.0,1611470709.714
2187057.0,1611470709.754
2185313.0,1611470709.786
2183810.0,1611470709.823
2183272.0,1611470709.86
2182986.0,1611470709.901
2183296.0,1611470709.94
2183673.0,1611470709.98
2184265.0,1611470710.022
2184689.0,1611470710.101
2184411.0,1611470710.061
2185410.0,1611470710.142
2186350.0,1611470710.182
2187297.0,1611470710.223
2188423.0,1611470710.261
2189560.0,1611470710.3
2191028.0,1611470710.34
2191922.0,1611470710.382
2191974.0,1611470710.422
2190167.0,1611470710.461
2188437.0,1611470710.502
2187299.0,1611470710.542
2187284.0,1611470710.582
2186898.0,1611470710.624
2187556.0,1611470710.66
2187647.0,1611470710.7
2188047.0,1611470710.742
2188553.0,1611470710.781
2188910.0,1611470710.822
2189614.0,1611470710.862
2190737.0,1611470710.901
2191575.0,1611470710.942
2192991.0,1611470710.983
2194150.0,1611470711.023
2196278.0,1611470711.102
2195618.0,1611470711.06
2194762.0,1611470711.141
2192911.0,1611470711.181
2191175.0,1611470711.223
2190248.0,1611470711.261
2189360.0,1611470711.343
2189793.0,1611470711.302
2189256.0,1611470711.382
2189428.0,1611470711.421
2189604.0,1611470711.462
2189538.0,1611470711.501
2190013.0,1611470711.543
2190501.0,1611470711.582
2191386.0,1611470711.622
2193311.0,1611470711.702
2194430.0,1611470711.741
2192140.0,1611470711.661
2195290.0,1611470711.781
2194151.0,1611470711.823
2191703.0,1611470711.861
2189968.0,1611470711.901
2188898.0,1611470711.943
2188355.0,1611470711.982
2187852.0,1611470712.022
2187967.0,1611470712.063
2188402.0,1611470712.142
2188256.0,1611470712.102
2188534.0,1611470712.183
2189148.0,1611470712.223
2189629.0,1611470712.262
2190607.0,1611470712.303
2191829.0,1611470712.342
2192971.0,1611470712.383
2194047.0,1611470712.423
2195242.0,1611470712.461
2195103.0,1611470712.501
2192881.0,1611470712.543
2189407.0,1611470712.623
2190596.0,1611470712.582
2188739.0,1611470712.663
2188283.0,1611470712.702
2188302.0,1611470712.743
2188409.0,1611470712.784
2188402.0,1611470712.824
2188433.0,1611470712.861
2188465.0,1611470712.902
2189541.0,1611470712.982
2188944.0,1611470712.941
2190369.0,1611470713.024
2191381.0,1611470713.061
2192456.0,1611470713.101
2193055.0,1611470713.143
2189718.0,1611470713.223
2191896.0,1611470713.182
2188348.0,1611470713.263
2187196.0,1611470713.302
2186947.0,1611470713.343
2186508.0,1611470713.384
2186785.0,1611470713.422
2186918.0,1611470713.461
2186940.0,1611470713.502
2187244.0,1611470713.541
2187695.0,1611470713.581
2188636.0,1611470713.623
2190604.0,1611470713.701
2189506.0,1611470713.661
2191513.0,1611470713.743
2192460.0,1611470713.782
2192445.0,1611470713.822
2190547.0,1611470713.863
2187789.0,1611470713.902
2186351.0,1611470713.942
2185382.0,1611470713.983
2184549.0,1611470714.023
2184556.0,1611470714.062
2184731.0,1611470714.103
2184655.0,1611470714.142
2184818.0,1611470714.183
2185818.0,1611470714.263
2185032.0,1611470714.224
2186986.0,1611470714.344
2186240.0,1611470714.303
2188141.0,1611470714.382
2189107.0,1611470714.423
2190425.0,1611470714.463
2190562.0,1611470714.502
2188511.0,1611470714.543
2186231.0,1611470714.584
2184352.0,1611470714.625
2183000.0,1611470714.661
2181393.0,1611470714.702
2180909.0,1611470714.742
2180810.0,1611470714.782
2180741.0,1611470714.824
2181062.0,1611470714.862
2181111.0,1611470714.902
2181268.0,1611470714.944
2181574.0,1611470714.983
2182373.0,1611470715.024
2183191.0,1611470715.064
2184290.0,1611470715.103
2186668.0,1611470715.185
2185487.0,1611470715.144
2186743.0,1611470715.262
2187823.0,1611470715.225
2180894.0,1611470715.383
2181950.0,1611470715.342
2184021.0,1611470715.303
2179966.0,1611470715.425
2179234.0,1611470715.503
2179293.0,1611470715.584
2179332.0,1611470715.545
2179254.0,1611470715.463
2179308.0,1611470715.625
2179770.0,1611470715.663
2180957.0,1611470715.743
2182100.0,1611470715.784
2180285.0,1611470715.702
2182797.0,1611470715.824
2185222.0,1611470715.905
2184013.0,1611470715.863
2186857.0,1611470715.984
2186730.0,1611470715.944
2185382.0,1611470716.026
2183299.0,1611470716.062
2182082.0,1611470716.103
2181194.0,1611470716.144
2180699.0,1611470716.183
2180795.0,1611470716.265
2180636.0,1611470716.224
2180951.0,1611470716.304
2180987.0,1611470716.344
2181946.0,1611470716.425
2181449.0,1611470716.385
2182606.0,1611470716.463
2183650.0,1611470716.504
2184648.0,1611470716.543
2185995.0,1611470716.583
2187100.0,1611470716.625
2188059.0,1611470716.664
2187341.0,1611470716.704
2185368.0,1611470716.745
2183758.0,1611470716.784
2182898.0,1611470716.825
2182331.0,1611470716.864
2182115.0,1611470716.903
2182288.0,1611470716.943
2182668.0,1611470716.984
2182951.0,1611470717.024
2183234.0,1611470717.064
2183738.0,1611470717.105
2184375.0,1611470717.144
2185453.0,1611470717.185
2186276.0,1611470717.224
2187509.0,1611470717.263
2188630.0,1611470717.303
2189454.0,1611470717.344
2186407.0,1611470717.424
2188467.0,1611470717.383
2184359.0,1611470717.504
2185091.0,1611470717.464
2184232.0,1611470717.585
2184063.0,1611470717.544
2184555.0,1611470717.625
2184727.0,1611470717.664
2185069.0,1611470717.706
2185441.0,1611470717.745
2185997.0,1611470717.783
2186946.0,1611470717.825
2187695.0,1611470717.864
2188870.0,1611470717.904
2190161.0,1611470717.945
2191394.0,1611470717.984
2192305.0,1611470718.025
2192081.0,1611470718.066
2189956.0,1611470718.105
2188370.0,1611470718.145
2187526.0,1611470718.184
2187323.0,1611470718.224
2187181.0,1611470718.264
2187566.0,1611470718.305
2187915.0,1611470718.344
2188042.0,1611470718.385
2188278.0,1611470718.426
2188653.0,1611470718.465
2189276.0,1611470718.505
2190136.0,1611470718.546
2191229.0,1611470718.584
2192362.0,1611470718.624
2193408.0,1611470718.665
2193937.0,1611470718.704
2193015.0,1611470718.744
2191084.0,1611470718.783
2189628.0,1611470718.822
2188910.0,1611470718.861
2188789.0,1611470718.9
2189321.0,1611470718.939
2189568.0,1611470718.978
2189783.0,1611470719.017
2189663.0,1611470719.056
2190320.0,1611470719.095
2191138.0,1611470719.134
2191793.0,1611470719.173
2192482.0,1611470719.212
2193703.0,1611470719.251
2194925.0,1611470719.29
2196025.0,1611470719.329
2195408.0,1611470719.368
2193344.0,1611470719.407
2191187.0,1611470719.446
2189846.0,1611470719.485
2189050.0,1611470719.524
2189010.0,1611470719.563
2189068.0,1611470719.68
2189016.0,1611470719.602
2189112.0,1611470719.641
2189154.0,1611470719.719
2189553.0,1611470719.758
2190176.0,1611470719.797
2190873.0,1611470719.836
2191865.0,1611470719.875
2192920.0,1611470719.914
2194069.0,1611470719.953
2195012.0,1611470720.031
2192596.0,1611470720.07
2190543.0,1611470720.109
2188878.0,1611470720.148
2195217.0,1611470719.992
2187150.0,1611470720.226
2186744.0,1611470720.265
2186605.0,1611470720.304
2187769.0,1611470720.187
2186745.0,1611470720.343
2186874.0,1611470720.382
2186903.0,1611470720.421
2187446.0,1611470720.46
2188202.0,1611470720.499
2188962.0,1611470720.538
2190204.0,1611470720.577
2191254.0,1611470720.616
2192202.0,1611470720.655
2193375.0,1611470720.694
2192522.0,1611470720.733
2189988.0,1611470720.772
2187894.0,1611470720.811
2185666.0,1611470720.889
2185047.0,1611470720.928
2185112.0,1611470720.967
2185271.0,1611470721.006
2185181.0,1611470721.045
2185379.0,1611470721.084
2185536.0,1611470721.123
2186318.0,1611470721.162
2187104.0,1611470721.201
2187829.0,1611470721.24
2189128.0,1611470721.28
2190235.0,1611470721.32
2191391.0,1611470721.36
2192596.0,1611470721.4
2193368.0,1611470721.44
2192216.0,1611470721.48
2189701.0,1611470721.52
2187809.0,1611470721.56
2186886.0,1611470721.6
2186261.0,1611470721.64
2185888.0,1611470721.68
2185897.0,1611470721.72
2186183.0,1611470721.76
2186137.0,1611470721.8
2186342.0,1611470721.84
2186651.0,1611470721.88
2187440.0,1611470721.92
2188299.0,1611470721.96
2189418.0,1611470722.0
2190309.0,1611470722.04
2186729.0,1611470720.85
2192740.0,1611470722.12
2194123.0,1611470722.16
2191578.0,1611470722.08
2194964.0,1611470722.2
2191349.0,1611470722.28
2188935.0,1611470722.36
2193898.0,1611470722.24
2189836.0,1611470722.32
2188435.0,1611470722.4
2188286.0,1611470722.44
2188671.0,1611470722.52
2189102.0,1611470722.6
2189443.0,1611470722.64
2190015.0,1611470722.68
2188393.0,1611470722.48
2188735.0,1611470722.56
2190913.0,1611470722.72
2192024.0,1611470722.76
2193177.0,1611470722.8
2194317.0,1611470722.84
2195501.0,1611470722.88
2195808.0,1611470722.92
2194354.0,1611470722.96
2192189.0,1611470723.0
2191024.0,1611470723.04
2190642.0,1611470723.08
2190516.0,1611470723.12
2190833.0,1611470723.16
2191359.0,1611470723.2
2191408.0,1611470723.28
2191263.0,1611470723.24
2192437.0,1611470723.36
2191767.0,1611470723.32
2193328.0,1611470723.4
2194505.0,1611470723.44
2195327.0,1611470723.48
2196802.0,1611470723.52
2197597.0,1611470723.56
2197336.0,1611470723.6
2195454.0,1611470723.64
2193282.0,1611470723.68
2192422.0,1611470723.72
2191820.0,1611470723.76
2191917.0,1611470723.8
2192312.0,1611470723.84
2192539.0,1611470723.88
2192608.0,1611470723.92
2192786.0,1611470723.96
2193899.0,1611470724.04
2193014.0,1611470724.0
2194655.0,1611470724.08
2195686.0,1611470724.12
2196817.0,1611470724.16
2197966.0,1611470724.2
2199140.0,1611470724.24
2198552.0,1611470724.28
2196294.0,1611470724.32
2193960.0,1611470724.36
2192550.0,1611470724.4
2191637.0,1611470724.44
2191208.0,1611470724.48
2190861.0,1611470724.52
2191221.0,1611470724.56
2190971.0,1611470724.6
2191004.0,1611470724.64
2191382.0,1611470724.68
2191688.0,1611470724.72
2192398.0,1611470724.76
2193238.0,1611470724.8
2194285.0,1611470724.84
2195213.0,1611470724.88
2196624.0,1611470724.92
2196899.0,1611470724.96
2195484.0,1611470725.0
2192988.0,1611470725.04
2190824.0,1611470725.08
2189578.0,1611470725.12
2188680.0,1611470725.16
2188085.0,1611470725.2
2187668.0,1611470725.24
2187764.0,1611470725.28
2187691.0,1611470725.32
2187499.0,1611470725.36
2187756.0,1611470725.4
2188384.0,1611470725.44
2189935.0,1611470725.52
2188893.0,1611470725.48
2191802.0,1611470725.6
2190764.0,1611470725.56
2192921.0,1611470725.64
2193860.0,1611470725.68
2193736.0,1611470725.72
2191666.0,1611470725.76
2189124.0,1611470725.8
2187562.0,1611470725.84
2186493.0,1611470725.88
2185490.0,1611470725.92
2185240.0,1611470725.96
2185214.0,1611470726.0
2185277.0,1611470726.04
2184993.0,1611470726.08
2185320.0,1611470726.12
2186348.0,1611470726.2
2185776.0,1611470726.16
2186758.0,1611470726.24
2187749.0,1611470726.28
2189007.0,1611470726.32
2190092.0,1611470726.36
2191218.0,1611470726.4
2191549.0,1611470726.44
2190184.0,1611470726.48
2187767.0,1611470726.52
2186090.0,1611470726.56
2184997.0,1611470726.6
2184451.0,1611470726.64
2184041.0,1611470726.72
2183965.0,1611470726.76
2183984.0,1611470726.8
2184305.0,1611470726.84
2184518.0,1611470726.88
2185327.0,1611470726.92
2185777.0,1611470726.96
2186819.0,1611470727.0
2187976.0,1611470727.04
2183892.0,1611470726.68
2190170.0,1611470727.12
2191564.0,1611470727.2
2191582.0,1611470727.16
2187553.0,1611470727.28
2189204.0,1611470727.08
2189792.0,1611470727.24
2185967.0,1611470727.32
2185235.0,1611470727.36
2184690.0,1611470727.4
2184871.0,1611470727.44
2185152.0,1611470727.52
2185274.0,1611470727.56
2185769.0,1611470727.6
2186630.0,1611470727.68
2187667.0,1611470727.72
2188781.0,1611470727.76
2189839.0,1611470727.8
2190946.0,1611470727.84
2185985.0,1611470727.64
2185111.0,1611470727.48
2192147.0,1611470727.88
2192791.0,1611470727.92
2191613.0,1611470727.96
2189486.0,1611470728.0
2187976.0,1611470728.04
2187572.0,1611470728.08
2187228.0,1611470728.12
2187509.0,1611470728.16
2187848.0,1611470728.2
2188134.0,1611470728.24
2188077.0,1611470728.28
2188606.0,1611470728.32
2189098.0,1611470728.36
2189734.0,1611470728.4
2190811.0,1611470728.44
2191700.0,1611470728.48
2192796.0,1611470728.52
2193947.0,1611470728.56
2194432.0,1611470728.6
2192591.0,1611470728.64
2190547.0,1611470728.68
2189267.0,1611470728.72
2188681.0,1611470728.76
2188760.0,1611470728.8
2188746.0,1611470728.84
2189119.0,1611470728.88
2189244.0,1611470728.92
2189318.0,1611470728.96
2189744.0,1611470729.0
2190273.0,1611470729.04
2191280.0,1611470729.08
2192255.0,1611470729.12
2193307.0,1611470729.16
2194660.0,1611470729.2
2195799.0,1611470729.24
2196421.0,1611470729.28
2195173.0,1611470729.32
2190848.0,1611470729.4
2189930.0,1611470729.44
2189424.0,1611470729.48
2192621.0,1611470729.36
2188936.0,1611470729.52
2189073.0,1611470729.6
2189091.0,1611470729.56
2189480.0,1611470729.64
2189629.0,1611470729.68
2190034.0,1611470729.72
2190760.0,1611470729.76
2191679.0,1611470729.8
2192610.0,1611470729.84
2193539.0,1611470729.88
2194543.0,1611470729.92
2195688.0,1611470729.96
2196216.0,1611470730.0
2194905.0,1611470730.04
2192408.0,1611470730.08
2190755.0,1611470730.12
2189358.0,1611470730.16
2188505.0,1611470730.2
2187984.0,1611470730.24
2188303.0,1611470730.32
2188538.0,1611470730.4
2188165.0,1611470730.28
2188557.0,1611470730.36
2188812.0,1611470730.44
2189419.0,1611470730.48
2190330.0,1611470730.52
2191200.0,1611470730.56
2193439.0,1611470730.64
2194778.0,1611470730.68
2192339.0,1611470730.6
2196090.0,1611470730.775
2197053.0,1611470730.814
2195916.0,1611470730.854
2193698.0,1611470730.895
2191653.0,1611470730.934
2190504.0,1611470730.974
2189620.0,1611470731.016
2189441.0,1611470731.054
2189322.0,1611470731.094
2189408.0,1611470731.135
2189245.0,1611470731.174
2189387.0,1611470731.215
2189469.0,1611470731.256
2189769.0,1611470731.295
2190392.0,1611470731.335
2192393.0,1611470731.416
2194627.0,1611470731.489
2195813.0,1611470731.528
2193523.0,1611470731.455
2191530.0,1611470731.376
2197032.0,1611470731.568
2198144.0,1611470731.61
2196692.0,1611470731.649
2194824.0,1611470731.688
2192780.0,1611470731.73
2191974.0,1611470731.85
2192117.0,1611470731.89
2191957.0,1611470731.81
2192499.0,1611470731.971
2192544.0,1611470732.011
2192591.0,1611470732.049
2193000.0,1611470732.09
2193896.0,1611470732.129
2192454.0,1611470731.93
2192435.0,1611470731.769
2194697.0,1611470732.169
2195475.0,1611470732.211
2196390.0,1611470732.25
2197714.0,1611470732.289
2198316.0,1611470732.331
2197206.0,1611470732.37
2194888.0,1611470732.411
2193497.0,1611470732.451
2192882.0,1611470732.491
2192700.0,1611470732.53
2192779.0,1611470732.57
2193184.0,1611470732.608
2193373.0,1611470732.648
2193275.0,1611470732.69
2193657.0,1611470732.729
2194017.0,1611470732.769
2194626.0,1611470732.811
2195728.0,1611470732.85
2197604.0,1611470732.931
2196598.0,1611470732.89
2198831.0,1611470732.97
2199179.0,1611470733.011
2197785.0,1611470733.052
2195238.0,1611470733.089
2193829.0,1611470733.129
2193177.0,1611470733.17
2192701.0,1611470733.21
2192528.0,1611470733.25
2192849.0,1611470733.291
2192752.0,1611470733.33
2192723.0,1611470733.37
2192963.0,1611470733.412
2193278.0,1611470733.451
2194137.0,1611470733.49
2194765.0,1611470733.532
2195793.0,1611470733.571
2196877.0,1611470733.612
2198124.0,1611470733.65
2196666.0,1611470733.729
2198185.0,1611470733.69
2193906.0,1611470733.77
2191973.0,1611470733.81
2190888.0,1611470733.85
2189619.0,1611470733.93
2190070.0,1611470733.891
2189427.0,1611470733.971
2189215.0,1611470734.013
2189082.0,1611470734.051
2189179.0,1611470734.091
2189258.0,1611470734.132
2189879.0,1611470734.171
2190456.0,1611470734.212
2191133.0,1611470734.253
2192078.0,1611470734.29
2193200.0,1611470734.329
2193528.0,1611470734.371
2191885.0,1611470734.411
2189023.0,1611470734.45
2186987.0,1611470734.491
2184667.0,1611470734.571
2183653.0,1611470734.613
2183411.0,1611470734.651
2183297.0,1611470734.691
2185615.0,1611470734.531
2182858.0,1611470734.732
2182761.0,1611470734.771
2183129.0,1611470734.812
2183567.0,1611470734.853
2183826.0,1611470734.89
2184630.0,1611470734.93
2187052.0,1611470735.051
2185770.0,1611470735.092
2186321.0,1611470735.011
2183139.0,1611470735.131
2185574.0,1611470734.971
2180699.0,1611470735.168
2179090.0,1611470735.21
2177720.0,1611470735.249
2177720.0,1611470735.289
2176807.0,1611470735.33
2176119.0,1611470735.37
2175855.0,1611470735.411
2175620.0,1611470735.451
2175198.0,1611470735.49
2175409.0,1611470735.53
2175373.0,1611470735.571
2175847.0,1611470735.611
2176237.0,1611470735.651
2177184.0,1611470735.692
2177982.0,1611470735.731
2178957.0,1611470735.772
2179705.0,1611470735.813
2178203.0,1611470735.852
2175551.0,1611470735.892
2173353.0,1611470735.931
2171915.0,1611470735.971
2170659.0,1611470736.012
2169958.0,1611470736.052
2169508.0,1611470736.091
2169545.0,1611470736.131
2169053.0,1611470736.172
2168634.0,1611470736.212
2168626.0,1611470736.252
2169211.0,1611470736.293
2169598.0,1611470736.332
2170293.0,1611470736.373
2171077.0,1611470736.412
2171853.0,1611470736.451
2172616.0,1611470736.49
2172182.0,1611470736.532
2167705.0,1611470736.612
2166116.0,1611470736.652
2165233.0,1611470736.692
2170025.0,1611470736.571
2164722.0,1611470736.731
2164711.0,1611470736.772
2164478.0,1611470736.852
2164504.0,1611470736.932
2165120.0,1611470736.973
2164766.0,1611470736.812
2164328.0,1611470736.893
2165906.0,1611470737.015
2166743.0,1611470737.051
2167691.0,1611470737.091
2168706.0,1611470737.132
2169973.0,1611470737.171
2170728.0,1611470737.212
2169869.0,1611470737.253
2167244.0,1611470737.292
2164946.0,1611470737.331
2163774.0,1611470737.373
2162872.0,1611470737.412
2162026.0,1611470737.452
2161898.0,1611470737.493
2161757.0,1611470737.573
2161702.0,1611470737.615
2162452.0,1611470737.692
2163164.0,1611470737.732
2164010.0,1611470737.771
2165032.0,1611470737.812
2166158.0,1611470737.853
2167506.0,1611470737.892
2168637.0,1611470737.932
2169837.0,1611470737.973
2161762.0,1611470737.533
2161948.0,1611470737.651
2169054.0,1611470738.013
2166676.0,1611470738.053
2164812.0,1611470738.094
2163525.0,1611470738.133
2162316.0,1611470738.172
2162034.0,1611470738.214
2161542.0,1611470738.252
2161731.0,1611470738.291
2161807.0,1611470738.333
2161845.0,1611470738.372
2162196.0,1611470738.413
2162868.0,1611470738.454
2163525.0,1611470738.493
2165885.0,1611470738.573
2164598.0,1611470738.532
2166842.0,1611470738.613
2168170.0,1611470738.653
2169317.0,1611470738.694
2170813.0,1611470738.733
2172285.0,1611470738.774
2170915.0,1611470738.852
2168918.0,1611470738.892
2167717.0,1611470738.934
2166787.0,1611470738.973
2166423.0,1611470739.014
2172672.0,1611470738.814
2166434.0,1611470739.054
2166706.0,1611470739.094
2166979.0,1611470739.133
2167003.0,1611470739.174
2167246.0,1611470739.214
2168277.0,1611470739.254
2168716.0,1611470739.295
2169803.0,1611470739.331
2170846.0,1611470739.372
2172294.0,1611470739.414
2173639.0,1611470739.452
2175181.0,1611470739.492
2176523.0,1611470739.533
2178082.0,1611470739.572
2179216.0,1611470739.613
2178106.0,1611470739.654
2176148.0,1611470739.693
2175061.0,1611470739.733
2174379.0,1611470739.774
2174149.0,1611470739.814
2174056.0,1611470739.853
2174628.0,1611470739.894
2174949.0,1611470739.934
2175765.0,1611470740.016
2175338.0,1611470739.974
2176464.0,1611470740.052
2177249.0,1611470740.092
2178356.0,1611470740.133
2179572.0,1611470740.172
2180764.0,1611470740.213
2182261.0,1611470740.253
2183592.0,1611470740.292
2185096.0,1611470740.332
2185414.0,1611470740.373
2184437.0,1611470740.413
2182547.0,1611470740.453
2181852.0,1611470740.494
2181734.0,1611470740.534
2181775.0,1611470740.574
2182323.0,1611470740.615
2182886.0,1611470740.645
2183863.0,1611470740.727
2183450.0,1611470740.685
2184429.0,1611470740.766
2185165.0,1611470740.806
2186349.0,1611470740.847
2187239.0,1611470740.886
2188679.0,1611470740.926
2190226.0,1611470740.967
2191512.0,1611470741.007
2193000.0,1611470741.046
2192666.0,1611470741.087
2189244.0,1611470741.167
2188349.0,1611470741.247
2188186.0,1611470741.287
2188608.0,1611470741.208
2190854.0,1611470741.126
2188335.0,1611470741.329
2188984.0,1611470741.365
2189800.0,1611470741.442
2190121.0,1611470741.475
2190948.0,1611470741.512
2191958.0,1611470741.554
2192946.0,1611470741.593
2194177.0,1611470741.633
2189065.0,1611470741.401
2196794.0,1611470741.713
2195451.0,1611470741.674
2197979.0,1611470741.796
2198106.0,1611470741.754
2196322.0,1611470741.834
2194078.0,1611470741.872
2193050.0,1611470741.914
2191705.0,1611470741.994
2192196.0,1611470741.953
2191751.0,1611470742.035
2191604.0,1611470742.074
2191752.0,1611470742.114
2191958.0,1611470742.155
2192258.0,1611470742.195
2192750.0,1611470742.233
2193397.0,1611470742.274
2194294.0,1611470742.313
2195162.0,1611470742.354
2196304.0,1611470742.395
2197537.0,1611470742.434
2198716.0,1611470742.474
2199573.0,1611470742.516
2197990.0,1611470742.555
2194084.0,1611470742.634
2193368.0,1611470742.673
2192403.0,1611470742.744
2192230.0,1611470742.783
2192455.0,1611470742.823
2192436.0,1611470742.864
2192421.0,1611470742.713
2195663.0,1611470742.593
2192501.0,1611470742.903
2192963.0,1611470742.943
2193656.0,1611470742.985
2194308.0,1611470743.023
2195277.0,1611470743.063
2196151.0,1611470743.104
2197345.0,1611470743.143
2198531.0,1611470743.184
2199580.0,1611470743.224
2199141.0,1611470743.263
2196766.0,1611470743.304
2194990.0,1611470743.345
2193754.0,1611470743.384
2193383.0,1611470743.424
2192969.0,1611470743.465
2193015.0,1611470743.504
2193201.0,1611470743.545
2193385.0,1611470743.587
2193414.0,1611470743.625
2193652.0,1611470743.665
2194412.0,1611470743.707
2195134.0,1611470743.746
2195932.0,1611470743.787
2197004.0,1611470743.825
2198022.0,1611470743.865
2199123.0,1611470743.905
2199802.0,1611470743.946
2199212.0,1611470743.986
2197097.0,1611470744.026
2195712.0,1611470744.067
2194562.0,1611470744.106
2194458.0,1611470744.146
2194382.0,1611470744.186
2194688.0,1611470744.225
2194822.0,1611470744.265
2194812.0,1611470744.306
2195080.0,1611470744.346
2195526.0,1611470744.387
2196220.0,1611470744.427
2197011.0,1611470744.466
2198139.0,1611470744.505
2199189.0,1611470744.546
2200396.0,1611470744.586
2200907.0,1611470744.667
2197107.0,1611470744.746
2195653.0,1611470744.827
2198755.0,1611470744.706
2196113.0,1611470744.788
2201495.0,1611470744.625
2195523.0,1611470744.865
2195553.0,1611470744.906
2195900.0,1611470744.945
2196228.0,1611470744.986
2196269.0,1611470745.027
2196861.0,1611470745.066
2197495.0,1611470745.106
2198399.0,1611470745.148
2199271.0,1611470745.188
2200126.0,1611470745.225
2201499.0,1611470745.266
2202710.0,1611470745.306
2203795.0,1611470745.35
2203154.0,1611470745.386
2201197.0,1611470745.426
2198986.0,1611470745.465
2197961.0,1611470745.506
2197014.0,1611470745.546
2196331.0,1611470745.587
2196183.0,1611470745.627
2196484.0,1611470745.666
2196296.0,1611470745.707
2196366.0,1611470745.748
2196464.0,1611470745.788
2196926.0,1611470745.827
2197412.0,1611470745.867
2198484.0,1611470745.906
2199557.0,1611470745.946
2200292.0,1611470745.988
2201178.0,1611470746.026
2202328.0,1611470746.067
2202932.0,1611470746.108
2201621.0,1611470746.147
2199421.0,1611470746.188
2197485.0,1611470746.227
2196817.0,1611470746.266
2195888.0,1611470746.306
2195450.0,1611470746.347
2195675.0,1611470746.387
2195690.0,1611470746.427
2195355.0,1611470746.468
2195646.0,1611470746.507
2195892.0,1611470746.548
2196307.0,1611470746.587
2197171.0,1611470746.626
2197999.0,1611470746.666
2199005.0,1611470746.708
2199945.0,1611470746.747
2201055.0,1611470746.788
2202421.0,1611470746.828
2203065.0,1611470746.867
2202107.0,1611470746.908
2199988.0,1611470746.947
2198355.0,1611470746.987
2197156.0,1611470747.026
2196443.0,1611470747.068
2196168.0,1611470747.107
2196186.0,1611470747.147
2196017.0,1611470747.189
2195947.0,1611470747.227
2196274.0,1611470747.267
2196462.0,1611470747.308
2196938.0,1611470747.348
2197746.0,1611470747.389
2198530.0,1611470747.429
2199431.0,1611470747.466
2200476.0,1611470747.506
2201803.0,1611470747.548
2202763.0,1611470747.588
2204181.0,1611470747.627
2205399.0,1611470747.668
2205613.0,1611470747.708
2203990.0,1611470747.748
2201866.0,1611470747.79
2200372.0,1611470747.826
2199770.0,1611470747.867
2199344.0,1611470747.909
2199013.0,1611470747.945
2199166.0,1611470747.987
2199112.0,1611470748.028
2199112.0,1611470748.067
2199169.0,1611470748.107
2199642.0,1611470748.148
2200278.0,1611470748.188
2200870.0,1611470748.227
2201894.0,1611470748.269
2202822.0,1611470748.308
2203817.0,1611470748.348
2204854.0,1611470748.39
2206153.0,1611470748.427
2207119.0,1611470748.467
2207715.0,1611470748.508
2206051.0,1611470748.547
2203957.0,1611470748.588
2202726.0,1611470748.629
2201706.0,1611470748.708
2202032.0,1611470748.668
2201699.0,1611470748.75
2201812.0,1611470748.827
2201636.0,1611470748.788
2201736.0,1611470748.868
2201893.0,1611470748.908
2202748.0,1611470748.99
2203517.0,1611470749.028
2204596.0,1611470749.069
2205368.0,1611470749.11
2206494.0,1611470749.147
2207603.0,1611470749.188
2208214.0,1611470749.229
2207258.0,1611470749.268
2205032.0,1611470749.308
2202309.0,1611470748.948
2203201.0,1611470749.349
2202370.0,1611470749.389
2202058.0,1611470749.429
2201848.0,1611470749.47
2201810.0,1611470749.507
2201904.0,1611470749.548
2202112.0,1611470749.589
2202043.0,1611470749.628
2202366.0,1611470749.668
2203061.0,1611470749.71
2204014.0,1611470749.749
2204763.0,1611470749.79
2205815.0,1611470749.83
2206722.0,1611470749.867
2208029.0,1611470749.908
2208967.0,1611470749.949
2208966.0,1611470749.989
2206783.0,1611470750.028
2204534.0,1611470750.07
2202558.0,1611470750.109
2201328.0,1611470750.149
2200625.0,1611470750.191
2199914.0,1611470750.229
2199757.0,1611470750.269
2199704.0,1611470750.31
2199548.0,1611470750.35
2199439.0,1611470750.388
2199687.0,1611470750.429
2199896.0,1611470750.468
2200574.0,1611470750.508
2201321.0,1611470750.549
2202318.0,1611470750.589
2203098.0,1611470750.629
2204214.0,1611470750.67
2205309.0,1611470750.709
2205238.0,1611470750.75
2203166.0,1611470750.792
2200520.0,1611470750.828
2198777.0,1611470750.868
2197329.0,1611470750.91
2196354.0,1611470750.949
2195709.0,1611470750.99
2195571.0,1611470751.03
2195579.0,1611470751.069
2195122.0,1611470751.11
2195009.0,1611470751.151
2195200.0,1611470751.189
2196097.0,1611470751.27
2196874.0,1611470751.309
2195574.0,1611470751.228
2197705.0,1611470751.349
2198533.0,1611470751.391
2200941.0,1611470751.47
2199614.0,1611470751.43
2198994.0,1611470751.548
2194543.0,1611470751.63
2193282.0,1611470751.669
2196495.0,1611470751.589
2201006.0,1611470751.509
2192462.0,1611470751.709
2191897.0,1611470751.751
2191814.0,1611470751.791
2191470.0,1611470751.869
2191653.0,1611470751.83
2191282.0,1611470751.949
2191875.0,1611470751.991
2192182.0,1611470752.029
2193236.0,1611470752.07
2193970.0,1611470752.111
2194991.0,1611470752.15
2197119.0,1611470752.23
2196292.0,1611470752.269
2193780.0,1611470752.309
2191482.0,1611470752.35
2191151.0,1611470751.909
2195962.0,1611470752.191
2190250.0,1611470752.39
2189185.0,1611470752.43
2188454.0,1611470752.471
2188508.0,1611470752.51
2188271.0,1611470752.551
2188327.0,1611470752.59
2188232.0,1611470752.629
2188017.0,1611470752.669
2188659.0,1611470752.711
2189078.0,1611470752.75
2189556.0,1611470752.791
2190641.0,1611470752.831
2191474.0,1611470752.87
2192614.0,1611470752.911
2192795.0,1611470752.95
2191232.0,1611470752.99
2188570.0,1611470753.029
2186922.0,1611470753.071
2186070.0,1611470753.11
2185683.0,1611470753.15
2185431.0,1611470753.229
2185273.0,1611470753.192
2184967.0,1611470753.311
2185153.0,1611470753.27
2185268.0,1611470753.35
2185139.0,1611470753.391
2185639.0,1611470753.432
2187162.0,1611470753.509
2186430.0,1611470753.471
2188675.0,1611470753.59
2188050.0,1611470753.551
2187195.0,1611470753.63
2184517.0,1611470753.671
2182372.0,1611470753.71
2180639.0,1611470753.751
2179852.0,1611470753.793
2179130.0,1611470753.831
2178698.0,1611470753.911
2179079.0,1611470753.869
2178073.0,1611470753.991
2178223.0,1611470753.95
2178202.0,1611470754.031
2179192.0,1611470754.111
2179929.0,1611470754.152
2178570.0,1611470754.071
2180733.0,1611470754.192
2181382.0,1611470754.23
2181008.0,1611470754.271
2178529.0,1611470754.31
2175825.0,1611470754.351
2173234.0,1611470754.392
2171695.0,1611470754.43
2170166.0,1611470754.47
2168895.0,1611470754.551
2168562.0,1611470754.592
2167988.0,1611470754.632
2169646.0,1611470754.511
2167712.0,1611470754.671
2167574.0,1611470754.712
2167966.0,1611470754.758
2168428.0,1611470754.797
2168985.0,1611470754.837
2169688.0,1611470754.878
2170698.0,1611470754.917
2170311.0,1611470754.957
2168076.0,1611470754.999
2165118.0,1611470755.037
2162919.0,1611470755.077
2161064.0,1611470755.118
2159816.0,1611470755.157
2158873.0,1611470755.198
2158448.0,1611470755.238
2158172.0,1611470755.278
2157429.0,1611470755.318
2157217.0,1611470755.359
2157649.0,1611470755.399
2157950.0,1611470755.439
2158613.0,1611470755.48
2159106.0,1611470755.517
2160072.0,1611470755.558
2160845.0,1611470755.598
2161804.0,1611470755.637
2162861.0,1611470755.677
2162127.0,1611470755.718
2159558.0,1611470755.758
2156933.0,1611470755.799
2155242.0,1611470755.839
2152272.0,1611470755.96
2152112.0,1611470756.0
2153799.0,1611470755.878
2152854.0,1611470755.919
2151951.0,1611470756.039
2151504.0,1611470756.079
2151661.0,1611470756.118
2151793.0,1611470756.158
2152173.0,1611470756.2
2153012.0,1611470756.238
2153843.0,1611470756.278
2154748.0,1611470756.319
2155885.0,1611470756.358
2157072.0,1611470756.399
2158200.0,1611470756.44
2159122.0,1611470756.479
2158362.0,1611470756.519
2156062.0,1611470756.561
2154062.0,1611470756.598
2152525.0,1611470756.638
2151639.0,1611470756.679
2150813.0,1611470756.759
2151190.0,1611470756.719
2151006.0,1611470756.801
2150774.0,1611470756.839
2150400.0,1611470756.88
2150840.0,1611470756.921
2151349.0,1611470756.958
2151992.0,1611470756.999
2152944.0,1611470757.039
2153878.0,1611470757.079
2154954.0,1611470757.119
2156024.0,1611470757.16
2157569.0,1611470757.2
2158334.0,1611470757.24
2157539.0,1611470757.281
2155196.0,1611470757.318
2153259.0,1611470757.359
2152429.0,1611470757.401
2151625.0,1611470757.439
2151632.0,1611470757.479
2151621.0,1611470757.521
2151869.0,1611470757.56
2151975.0,1611470757.601
2151903.0,1611470757.639
2152614.0,1611470757.679
2153174.0,1611470757.719
2154223.0,1611470757.76
2155511.0,1611470757.8
2156411.0,1611470757.84
2157694.0,1611470757.881
2159318.0,1611470757.92
2160493.0,1611470757.96
2162115.0,1611470758.0
2163528.0,1611470758.039
2162648.0,1611470758.079
2160539.0,1611470758.12
2158820.0,1611470758.159
2157240.0,1611470758.2
2156660.0,1611470758.241
2155905.0,1611470758.28
2155905.0,1611470758.32
2156051.0,1611470758.362
2156086.0,1611470758.399
2156319.0,1611470758.439
2156699.0,1611470758.48
2157355.0,1611470758.519
2158272.0,1611470758.56
2159094.0,1611470758.602
2160497.0,1611470758.639
2161683.0,1611470758.679
2162878.0,1611470758.721
2164121.0,1611470758.76
2165707.0,1611470758.801
2167175.0,1611470758.841
2167769.0,1611470758.881
2165885.0,1611470758.919
2164073.0,1611470758.96
2162627.0,1611470759.0
2161643.0,1611470759.04
2160880.0,1611470759.12
2161013.0,1611470759.081
2161310.0,1611470759.202
2160970.0,1611470759.16
2161393.0,1611470759.24
2161466.0,1611470759.28
2162192.0,1611470759.321
2162945.0,1611470759.361
2164139.0,1611470759.402
2165256.0,1611470759.44
2166428.0,1611470759.479
2167583.0,1611470759.52
2169292.0,1611470759.561
2170585.0,1611470759.601
2172268.0,1611470759.64
2173637.0,1611470759.682
2173135.0,1611470759.721
2171109.0,1611470759.761
2169323.0,1611470759.801
2168252.0,1611470759.84
2167547.0,1611470759.88
2167575.0,1611470759.921
2167460.0,1611470759.96
2167802.0,1611470760.001
2168229.0,1611470760.042
2168392.0,1611470760.081
2168717.0,1611470760.121
2170282.0,1611470760.201
2169242.0,1611470760.161
2171323.0,1611470760.24
2173815.0,1611470760.321
2175219.0,1611470760.361
2172766.0,1611470760.281
2176497.0,1611470760.403
2178160.0,1611470760.441
2178965.0,1611470760.48
2178083.0,1611470760.521
2176108.0,1611470760.56
2174604.0,1611470760.601
2173869.0,1611470760.642
2173460.0,1611470760.681
2173549.0,1611470760.719
2173710.0,1611470760.76
2174049.0,1611470760.8
2174087.0,1611470760.839
2174398.0,1611470760.881
2174847.0,1611470760.92
2175530.0,1611470760.96
2176619.0,1611470761.002
2177432.0,1611470761.04
2178567.0,1611470761.08
2179891.0,1611470761.121
2181175.0,1611470761.161
2181109.0,1611470761.202
2179729.0,1611470761.242
2177791.0,1611470761.281
2176717.0,1611470761.322
2176045.0,1611470761.363
2175486.0,1611470761.401
2175790.0,1611470761.44
2176188.0,1611470761.482
2176479.0,1611470761.521
2176442.0,1611470761.561
2177058.0,1611470761.603
2178466.0,1611470761.681
2177896.0,1611470761.641
2180650.0,1611470761.761
2179618.0,1611470761.722
2181793.0,1611470761.803
2183417.0,1611470761.843
2184373.0,1611470761.882
2184104.0,1611470761.92
2181902.0,1611470761.962
2179605.0,1611470762.002
2178022.0,1611470762.041
2176925.0,1611470762.083
2176409.0,1611470762.122
2176112.0,1611470762.162
2176103.0,1611470762.204
2176270.0,1611470762.242
2176064.0,1611470762.281
2176164.0,1611470762.322
2176503.0,1611470762.361
2177303.0,1611470762.402
2178265.0,1611470762.443
2179261.0,1611470762.482
2180275.0,1611470762.522
2181375.0,1611470762.563
2181608.0,1611470762.603
2180090.0,1611470762.641
2177350.0,1611470762.682
2175513.0,1611470762.721
2174240.0,1611470762.762
2173268.0,1611470762.804
2172800.0,1611470762.842
2172543.0,1611470762.882
2172487.0,1611470762.924
2172507.0,1611470762.963
2172627.0,1611470763.042
2172154.0,1611470763.002
2173839.0,1611470763.122
2173027.0,1611470763.081
2174719.0,1611470763.163
2175728.0,1611470763.203
2176644.0,1611470763.242
2177647.0,1611470763.281
2177776.0,1611470763.32
2175465.0,1611470763.361
2173045.0,1611470763.403
2171090.0,1611470763.441
2170221.0,1611470763.481
2169288.0,1611470763.523
2168830.0,1611470763.562
2168668.0,1611470763.603
2168757.0,1611470763.643
2168709.0,1611470763.683
2168495.0,1611470763.723
2168813.0,1611470763.764
2169339.0,1611470763.804
2170087.0,1611470763.841
2171140.0,1611470763.883
2171913.0,1611470763.922
2173163.0,1611470763.962
2174152.0,1611470764.004
2174596.0,1611470764.043
2173466.0,1611470764.083
2171028.0,1611470764.124
2168846.0,1611470764.163
2167819.0,1611470764.202
2167119.0,1611470764.243
2166550.0,1611470764.282
2166581.0,1611470764.322
2166402.0,1611470764.364
2166376.0,1611470764.404
2166253.0,1611470764.443
2166558.0,1611470764.484
2166948.0,1611470764.524
2167458.0,1611470764.562
2168474.0,1611470764.604
2169223.0,1611470764.642
2170298.0,1611470764.683
2171456.0,1611470764.724
2170584.0,1611470764.763
2168430.0,1611470764.804
2166611.0,1611470764.845
2165166.0,1611470764.884
2164525.0,1611470764.922
2164572.0,1611470764.963
2164581.0,1611470765.003
2164696.0,1611470765.043
2164771.0,1611470765.084
2165114.0,1611470765.163
2164656.0,1611470765.123
2165764.0,1611470765.205
2166673.0,1611470765.243
2167428.0,1611470765.283
2168633.0,1611470765.324
2169965.0,1611470765.364
2172163.0,1611470765.443
2171214.0,1611470765.482
2170990.0,1611470765.405
2168736.0,1611470765.523
2166594.0,1611470765.564
2165355.0,1611470765.604
2164306.0,1611470765.643
2163630.0,1611470765.685
2163315.0,1611470765.724
2163316.0,1611470765.764
2163419.0,1611470765.843
2164092.0,1611470765.924
2163477.0,1611470765.804
2164769.0,1611470765.963
2165882.0,1611470766.004
2166707.0,1611470766.044
2167807.0,1611470766.084
2169035.0,1611470766.124
2163588.0,1611470765.883
2170344.0,1611470766.165
2171690.0,1611470766.205
2170537.0,1611470766.284
2166059.0,1611470766.364
2165036.0,1611470766.406
2172194.0,1611470766.243
2168286.0,1611470766.323
2164072.0,1611470766.444
2163584.0,1611470766.484
2163335.0,1611470766.526
2163429.0,1611470766.565
2163192.0,1611470766.604
2163401.0,1611470766.644
2163733.0,1611470766.683
2164374.0,1611470766.724
2165008.0,1611470766.763
2166061.0,1611470766.802
2167263.0,1611470766.841
2168285.0,1611470766.88
2169725.0,1611470766.919
2170850.0,1611470766.958
2172277.0,1611470766.997
2173917.0,1611470767.036
2174952.0,1611470767.075
2174000.0,1611470767.114
2171881.0,1611470767.153
2170025.0,1611470767.192
2169101.0,1611470767.231
2167969.0,1611470767.27
2167559.0,1611470767.309
2167752.0,1611470767.348
2167835.0,1611470767.387
2167769.0,1611470767.426
2167891.0,1611470767.465
2168348.0,1611470767.504
2169060.0,1611470767.543
2170007.0,1611470767.582
2170911.0,1611470767.621
2172113.0,1611470767.66
2173568.0,1611470767.699
2174765.0,1611470767.738
2176118.0,1611470767.777
2177387.0,1611470767.816
2178957.0,1611470767.855
2179980.0,1611470767.894
2177197.0,1611470767.972
2175367.0,1611470768.011
2179131.0,1611470767.933
2174784.0,1611470768.05
2174025.0,1611470768.089
2174022.0,1611470768.128
2174237.0,1611470768.167
2174270.0,1611470768.206
2174450.0,1611470768.245
2174643.0,1611470768.284
2175053.0,1611470768.324
2175830.0,1611470768.364
2176584.0,1611470768.404
2177727.0,1611470768.444
2179865.0,1611470768.524
2182391.0,1611470768.604
2183538.0,1611470768.644
2181205.0,1611470768.564
2178647.0,1611470768.484
2182414.0,1611470768.684
2180721.0,1611470768.724
2179209.0,1611470768.764
2178321.0,1611470768.804
2178009.0,1611470768.844
2178213.0,1611470768.884
2178470.0,1611470768.924
2178939.0,1611470768.964
2179169.0,1611470769.004
2179622.0,1611470769.044
2180035.0,1611470769.084
2180927.0,1611470769.124
2181951.0,1611470769.164
2183203.0,1611470769.204
2184247.0,1611470769.244
2185471.0,1611470769.284
2186693.0,1611470769.324
2187937.0,1611470769.364
2187041.0,1611470769.404
2184964.0,1611470769.444
2183117.0,1611470769.484
2181798.0,1611470769.524
2181229.0,1611470769.564
2180764.0,1611470769.604
2180867.0,1611470769.644
2180815.0,1611470769.684
2181026.0,1611470769.724
2181134.0,1611470769.764
2181458.0,1611470769.804
2182022.0,1611470769.844
2182788.0,1611470769.884
2183788.0,1611470769.924
2184987.0,1611470769.964
2185857.0,1611470770.004
2187240.0,1611470770.044
2188527.0,1611470770.084
2187925.0,1611470770.124
2185776.0,1611470770.164
2183522.0,1611470770.204
2182220.0,1611470770.244
2181302.0,1611470770.284
2180658.0,1611470770.324
2180706.0,1611470770.364
2180464.0,1611470770.404
2180884.0,1611470770.444
2180911.0,1611470770.524
2181520.0,1611470770.564
2180624.0,1611470770.484
2182368.0,1611470770.604
2183202.0,1611470770.644
2184313.0,1611470770.684
2185227.0,1611470770.724
2186456.0,1611470770.764
2187956.0,1611470770.804
2187865.0,1611470770.844
2186010.0,1611470770.884
2183602.0,1611470770.924
2181989.0,1611470770.964
2181262.0,1611470771.004
2180439.0,1611470771.044
2180191.0,1611470771.084
2180469.0,1611470771.124
2180391.0,1611470771.164
2180496.0,1611470771.204
2180682.0,1611470771.244
2180991.0,1611470771.284
2181863.0,1611470771.324
2182575.0,1611470771.364
2183568.0,1611470771.404
2184921.0,1611470771.444
2185797.0,1611470771.484
2187174.0,1611470771.524
2187127.0,1611470771.564
2184856.0,1611470771.604
2182966.0,1611470771.644
2181046.0,1611470771.724
2180316.0,1611470771.764
2181322.0,1611470771.684
2180123.0,1611470771.804
2180410.0,1611470771.844
2180684.0,1611470771.884
2180563.0,1611470771.924
2180806.0,1611470771.964
2181792.0,1611470772.044
2181388.0,1611470772.004
2183541.0,1611470772.124
2182935.0,1611470772.084
2184784.0,1611470772.164
2185958.0,1611470772.204
2185800.0,1611470772.244
2184040.0,1611470772.284
2182128.0,1611470772.324
2180943.0,1611470772.364
2180352.0,1611470772.404
2180291.0,1611470772.444
2180334.0,1611470772.484
2180639.0,1611470772.524
2180630.0,1611470772.564
2180769.0,1611470772.604
2181720.0,1611470772.684
2182347.0,1611470772.724
2180982.0,1611470772.644
2183416.0,1611470772.764
2184476.0,1611470772.804
2185593.0,1611470772.844
2186234.0,1611470772.884
2184601.0,1611470772.924
2182374.0,1611470772.964
2180653.0,1611470773.004
2179897.0,1611470773.044
2179607.0,1611470773.084
2179528.0,1611470773.124
2179563.0,1611470773.164
2179660.0,1611470773.204
2179735.0,1611470773.244
2179997.0,1611470773.284
2180539.0,1611470773.324
2181474.0,1611470773.364
2182226.0,1611470773.404
2183425.0,1611470773.444
2184448.0,1611470773.484
2185828.0,1611470773.524
2185649.0,1611470773.564
2184025.0,1611470773.604
2181684.0,1611470773.644
2180260.0,1611470773.684
2178218.0,1611470773.764
2178925.0,1611470773.724
2178010.0,1611470773.804
2177908.0,1611470773.844
2177934.0,1611470773.884
2177947.0,1611470773.924
2178122.0,1611470773.964
2178565.0,1611470774.004
2179176.0,1611470774.044
2179910.0,1611470774.084
2181004.0,1611470774.124
2182072.0,1611470774.164
2182995.0,1611470774.204
2183946.0,1611470774.244
2182369.0,1611470774.284
2180241.0,1611470774.324
2178409.0,1611470774.364
2177064.0,1611470774.404
2176460.0,1611470774.444
2176118.0,1611470774.484
2175959.0,1611470774.524
2175965.0,1611470774.564
2175968.0,1611470774.604
2176282.0,1611470774.644
2176436.0,1611470774.684
2177274.0,1611470774.724
2177849.0,1611470774.764
2178898.0,1611470774.804
2179890.0,1611470774.844
2180977.0,1611470774.884
2182312.0,1611470774.924
2183618.0,1611470774.964
2183399.0,1611470775.004
2181512.0,1611470775.044
2179347.0,1611470775.084
2178193.0,1611470775.124
2177093.0,1611470775.164
2176611.0,1611470775.204
2176564.0,1611470775.244
2176724.0,1611470775.284
2177121.0,1611470775.324
2176997.0,1611470775.364
2177343.0,1611470775.404
2178114.0,1611470775.444
2178917.0,1611470775.484
2179841.0,1611470775.524
2180907.0,1611470775.564
2181972.0,1611470775.604
2183169.0,1611470775.644
2184486.0,1611470775.684
2185004.0,1611470775.724
2183771.0,1611470775.764
2181948.0,1611470775.804
2180400.0,1611470775.844
2179826.0,1611470775.884
2179579.0,1611470775.924
2179632.0,1611470775.964
2180250.0,1611470776.044
2180946.0,1611470776.124
2181590.0,1611470776.164
2180499.0,1611470776.084
2180062.0,1611470776.004
2182511.0,1611470776.204
2183481.0,1611470776.244
2184714.0,1611470776.284
2186153.0,1611470776.324
2187206.0,1611470776.364
2188232.0,1611470776.404
2184520.0,1611470776.524
2184162.0,1611470776.564
2184288.0,1611470776.604
2184457.0,1611470776.644
2185401.0,1611470776.684
2185511.0,1611470776.724
2185936.0,1611470776.764
2186478.0,1611470776.804
2187384.0,1611470776.844
2188506.0,1611470776.884
2189723.0,1611470776.924
2191004.0,1611470776.964
2187347.0,1611470776.444
2185434.0,1611470776.484
2192456.0,1611470777.004
2193739.0,1611470777.044
2193599.0,1611470777.084
2192181.0,1611470777.124
2190411.0,1611470777.164
2190121.0,1611470777.204
2189602.0,1611470777.244
2189761.0,1611470777.284
2190467.0,1611470777.324
2191021.0,1611470777.364
2191572.0,1611470777.404
2192085.0,1611470777.444
2192556.0,1611470777.484
2193713.0,1611470777.524
2194834.0,1611470777.564
2196018.0,1611470777.604
2197405.0,1611470777.644
2198946.0,1611470777.684
2200409.0,1611470777.724
2198159.0,1611470777.804
2200242.0,1611470777.764
2196496.0,1611470777.844
2195779.0,1611470777.884
2195206.0,1611470777.924
2194893.0,1611470777.964
2195277.0,1611470778.004
2195581.0,1611470778.044
2195984.0,1611470778.084
2196381.0,1611470778.124
2196943.0,1611470778.164
2197480.0,1611470778.204
2198566.0,1611470778.244
2199773.0,1611470778.284
2200829.0,1611470778.324
2202134.0,1611470778.364
2203420.0,1611470778.404
2202547.0,1611470778.444
2199011.0,1611470778.524
2200430.0,1611470778.484
2198193.0,1611470778.564
2197654.0,1611470778.604
2197698.0,1611470778.644
2198086.0,1611470778.684
2198388.0,1611470778.77
2198619.0,1611470778.81
2199112.0,1611470778.849
2199660.0,1611470778.89
2200484.0,1611470778.929
2201520.0,1611470778.969
2202852.0,1611470779.011
2203942.0,1611470779.049
2205369.0,1611470779.09
2205823.0,1611470779.131
2204249.0,1611470779.17
2202329.0,1611470779.21
2201268.0,1611470779.251
2200721.0,1611470779.29
2200478.0,1611470779.33
2200385.0,1611470779.371
2200884.0,1611470779.411
2201338.0,1611470779.45
2201679.0,1611470779.491
2202060.0,1611470779.53
2202764.0,1611470779.57
2203639.0,1611470779.612
2204926.0,1611470779.651
2206087.0,1611470779.691
2207155.0,1611470779.732
2207754.0,1611470779.771
2206307.0,1611470779.812
2204172.0,1611470779.852
2203217.0,1611470779.891
2202472.0,1611470779.931
2202316.0,1611470779.972
2202680.0,1611470780.012
2202903.0,1611470780.051
2203220.0,1611470780.092
2203612.0,1611470780.132
2204995.0,1611470780.213
2205817.0,1611470780.252
2204128.0,1611470780.172
2206848.0,1611470780.292
2208204.0,1611470780.333
2209590.0,1611470780.372
2209837.0,1611470780.413
2208521.0,1611470780.453
2206444.0,1611470780.492
2205601.0,1611470780.532
2205263.0,1611470780.573
2205202.0,1611470780.613
2205486.0,1611470780.653
2205745.0,1611470780.694
2206294.0,1611470780.733
2206635.0,1611470780.773
2207202.0,1611470780.815
2208162.0,1611470780.853
2208961.0,1611470780.893
2210048.0,1611470780.934
2211270.0,1611470780.973
2212426.0,1611470781.014
2213247.0,1611470781.054
2211853.0,1611470781.093
2209892.0,1611470781.134
2208687.0,1611470781.175
2208503.0,1611470781.214
2208555.0,1611470781.254
2208881.0,1611470781.295
2209474.0,1611470781.334
2209932.0,1611470781.416
2209476.0,1611470781.374
2210298.0,1611470781.454
2210931.0,1611470781.494
2212702.0,1611470781.574
2213869.0,1611470781.615
2214752.0,1611470781.695
2212824.0,1611470781.735
2215059.0,1611470781.655
2211642.0,1611470781.535
2211454.0,1611470781.776
2210836.0,1611470781.815
2210749.0,1611470781.855
2212030.0,1611470781.935
2211257.0,1611470781.896
2212830.0,1611470782.017
2212592.0,1611470781.975
2213383.0,1611470782.055
2214252.0,1611470782.09
2216610.0,1611470782.168
2218174.0,1611470782.209
2215467.0,1611470782.129
2219136.0,1611470782.25
2218848.0,1611470782.289
2216452.0,1611470782.329
2214065.0,1611470782.41
2214941.0,1611470782.371
2214022.0,1611470782.45
2214392.0,1611470782.489
2215428.0,1611470782.528
2216718.0,1611470782.569
2218244.0,1611470782.611
2220570.0,1611470782.649
2222621.0,1611470782.689
2224688.0,1611470782.731
2226787.0,1611470782.77
2228532.0,1611470782.811
2229630.0,1611470782.849
2229987.0,1611470782.889
2228560.0,1611470782.929
2226469.0,1611470782.97
2225196.0,1611470783.01
2224449.0,1611470783.05
2224281.0,1611470783.091
2224968.0,1611470783.17
2224391.0,1611470783.13
2225226.0,1611470783.249
2225019.0,1611470783.21
2225863.0,1611470783.289
2227130.0,1611470783.37
2226318.0,1611470783.33
2228315.0,1611470783.411
2229319.0,1611470783.451
2230498.0,1611470783.531
2230429.0,1611470783.49
2228588.0,1611470783.57
2226371.0,1611470783.61
2224744.0,1611470783.649
2223908.0,1611470783.69
2223481.0,1611470783.73
2223215.0,1611470783.77
2223663.0,1611470783.811
2223524.0,1611470783.85
2223599.0,1611470783.888
2223834.0,1611470783.929
2224362.0,1611470783.969
2224915.0,1611470784.01
2225837.0,1611470784.05
2226752.0,1611470784.089
2227725.0,1611470784.129
2228201.0,1611470784.171
2226578.0,1611470784.21
2222210.0,1611470784.291
2220615.0,1611470784.371
2221321.0,1611470784.331
2224118.0,1611470784.25
2220221.0,1611470784.411
2220206.0,1611470784.449
2220272.0,1611470784.49
2220051.0,1611470784.531
2220401.0,1611470784.57
2220758.0,1611470784.611
2221353.0,1611470784.652
2222028.0,1611470784.691
2223145.0,1611470784.731
2223960.0,1611470784.77
2225032.0,1611470784.81
2224937.0,1611470784.85
2223076.0,1611470784.891
2220570.0,1611470784.93
2218700.0,1611470784.971
2217859.0,1611470785.013
2217285.0,1611470785.051
2217323.0,1611470785.091
2217280.0,1611470785.13
2217048.0,1611470785.17
2217383.0,1611470785.211
2217208.0,1611470785.251
2217897.0,1611470785.29
2218226.0,1611470785.331
2219092.0,1611470785.372
2221102.0,1611470785.452
2220002.0,1611470785.412
2221864.0,1611470785.491
2220890.0,1611470785.53
2218515.0,1611470785.57
2216580.0,1611470785.612
2215640.0,1611470785.65
2215129.0,1611470785.69
2215021.0,1611470785.731
2215466.0,1611470785.77
2215634.0,1611470785.811
2215493.0,1611470785.852
2215406.0,1611470785.891
2215944.0,1611470785.931
2216859.0,1611470785.973
2217545.0,1611470786.013
2218428.0,1611470786.05
2219723.0,1611470786.091
2220256.0,1611470786.13
2219164.0,1611470786.171
2216528.0,1611470786.213
2214959.0,1611470786.251
2213591.0,1611470786.291
2213139.0,1611470786.33
2213181.0,1611470786.37
2213491.0,1611470786.411
2213744.0,1611470786.451
2213631.0,1611470786.49
2214084.0,1611470786.53
2214490.0,1611470786.572
2215272.0,1611470786.612
2216258.0,1611470786.651
2217180.0,1611470786.692
2218548.0,1611470786.732
2219702.0,1611470786.772
2219162.0,1611470786.814
2216759.0,1611470786.85
2214289.0,1611470786.891
2213068.0,1611470786.932
2211974.0,1611470786.971
2211391.0,1611470787.012
2211308.0,1611470787.053
2211742.0,1611470787.092
2211498.0,1611470787.132
2211690.0,1611470787.173
2211908.0,1611470787.211
2212596.0,1611470787.251
2213460.0,1611470787.292
2214357.0,1611470787.331
2215552.0,1611470787.372
2216919.0,1611470787.414
2218003.0,1611470787.451
2216638.0,1611470787.491
2214387.0,1611470787.533
2210931.0,1611470787.613
2210254.0,1611470787.653
2210076.0,1611470787.693
2212093.0,1611470787.572
2210587.0,1611470787.772
2209971.0,1611470787.731
2210546.0,1611470787.812
2210611.0,1611470787.851
2211279.0,1611470787.893
2212241.0,1611470787.932
2212712.0,1611470787.972
2214013.0,1611470788.014
2215239.0,1611470788.053
2216313.0,1611470788.091
2217920.0,1611470788.132
2218062.0,1611470788.171
2216500.0,1611470788.212
2214010.0,1611470788.253
2212277.0,1611470788.292
2211724.0,1611470788.332
2211360.0,1611470788.374
2211435.0,1611470788.414
2211748.0,1611470788.451
2212043.0,1611470788.492
2212050.0,1611470788.532
2212578.0,1611470788.572
2212940.0,1611470788.614
2214001.0,1611470788.651
2215176.0,1611470788.692
2216255.0,1611470788.733
2217462.0,1611470788.772
2218810.0,1611470788.813
2219481.0,1611470788.854
2218039.0,1611470788.89
2215820.0,1611470788.93
2214478.0,1611470788.971
2213801.0,1611470789.012
2213450.0,1611470789.052
2213706.0,1611470789.092
2214201.0,1611470789.131
2214492.0,1611470789.172
2214783.0,1611470789.214
2215114.0,1611470789.252
2215822.0,1611470789.292
2216639.0,1611470789.334
2217790.0,1611470789.373
2219036.0,1611470789.414
2220480.0,1611470789.455
2220758.0,1611470789.492
2219374.0,1611470789.532
2217117.0,1611470789.573
2216276.0,1611470789.613
2215681.0,1611470789.653
2215685.0,1611470789.694
2216276.0,1611470789.733
2216739.0,1611470789.773
2217326.0,1611470789.815
2217316.0,1611470789.852
2218261.0,1611470789.892
2218794.0,1611470789.933
2219681.0,1611470789.973
2220909.0,1611470790.014
2222191.0,1611470790.054
2223355.0,1611470790.093
2222626.0,1611470790.134
2219995.0,1611470790.175
2217377.0,1611470790.252
2216813.0,1611470790.293
2216918.0,1611470790.333
2217185.0,1611470790.373
2218251.0,1611470790.213
2217381.0,1611470790.415
2217486.0,1611470790.453
2217906.0,1611470790.493
2218441.0,1611470790.534
2219170.0,1611470790.573
2220156.0,1611470790.614
2221350.0,1611470790.655
2222369.0,1611470790.694
2222777.0,1611470790.732
2220919.0,1611470790.778
2218760.0,1611470790.818
2216998.0,1611470790.857
2216155.0,1611470790.898
2215750.0,1611470790.937
2215860.0,1611470790.978
2215778.0,1611470791.019
2215992.0,1611470791.058
2216152.0,1611470791.098
2216526.0,1611470791.139
2217005.0,1611470791.178
2217948.0,1611470791.219
2218867.0,1611470791.259
2220075.0,1611470791.298
2221103.0,1611470791.338
2221317.0,1611470791.379
2219317.0,1611470791.419
2216931.0,1611470791.458
2215524.0,1611470791.499
2214609.0,1611470791.539
2214348.0,1611470791.579
2214402.0,1611470791.62
2214568.0,1611470791.659
2214727.0,1611470791.699
2214911.0,1611470791.74
2215249.0,1611470791.779
2216038.0,1611470791.82
2217126.0,1611470791.86
2218120.0,1611470791.899
2219513.0,1611470791.939
2220548.0,1611470791.98
2221416.0,1611470792.02
2220624.0,1611470792.059
2218236.0,1611470792.1
2215997.0,1611470792.139
2215094.0,1611470792.18
2214513.0,1611470792.221
2214427.0,1611470792.26
2214663.0,1611470792.3
2214644.0,1611470792.341
2214790.0,1611470792.38
2215296.0,1611470792.421
2215522.0,1611470792.461
2216435.0,1611470792.5
2217283.0,1611470792.54
2218439.0,1611470792.581
2219502.0,1611470792.621
2220769.0,1611470792.66
2221157.0,1611470792.701
2219141.0,1611470792.74
2217377.0,1611470792.781
2216416.0,1611470792.822
2215900.0,1611470792.861
2216174.0,1611470792.901
2216800.0,1611470792.942
2217347.0,1611470792.981
2217499.0,1611470793.022
2217861.0,1611470793.062
2218555.0,1611470793.101
2219470.0,1611470793.141
2220565.0,1611470793.182
2221565.0,1611470793.222
2222874.0,1611470793.261
2224283.0,1611470793.302
2224825.0,1611470793.341
2223520.0,1611470793.382
2221373.0,1611470793.423
2220192.0,1611470793.462
2219710.0,1611470793.501
2219635.0,1611470793.54
2219932.0,1611470793.579
2220485.0,1611470793.62
2220875.0,1611470793.66
2221229.0,1611470793.7
2222503.0,1611470793.781
2221749.0,1611470793.74
2223931.0,1611470793.821
2224806.0,1611470793.861
2226171.0,1611470793.9
2227481.0,1611470793.939
2228858.0,1611470793.979
2229934.0,1611470794.021
2228766.0,1611470794.059
2226686.0,1611470794.099
2225329.0,1611470794.14
2224677.0,1611470794.179
2224183.0,1611470794.22
2224280.0,1611470794.261
2224652.0,1611470794.3
2225015.0,1611470794.34
2225228.0,1611470794.382
2225590.0,1611470794.422
2226291.0,1611470794.459
2227135.0,1611470794.5
2228179.0,1611470794.54
2229543.0,1611470794.58
2230676.0,1611470794.622
2232193.0,1611470794.66
2233448.0,1611470794.701
2233822.0,1611470794.781
2231826.0,1611470794.82
2230322.0,1611470794.86
2234571.0,1611470794.742
2229767.0,1611470794.9
2229494.0,1611470794.94
2229050.0,1611470794.981
2229641.0,1611470795.021
2229929.0,1611470795.061
2230260.0,1611470795.102
2230853.0,1611470795.141
2231425.0,1611470795.179
2232110.0,1611470795.221
2233271.0,1611470795.26
2234341.0,1611470795.3
2237127.0,1611470795.381
2235665.0,1611470795.341
2238315.0,1611470795.422
2239740.0,1611470795.462
2240899.0,1611470795.502
2240004.0,1611470795.54
2238248.0,1611470795.581
2236800.0,1611470795.621
2236492.0,1611470795.66
2236098.0,1611470795.702
2236553.0,1611470795.781
2237117.0,1611470795.823
2236370.0,1611470795.741
2237749.0,1611470795.9
2237165.0,1611470795.862
2238422.0,1611470795.941
2239115.0,1611470795.98
2240254.0,1611470796.021
2241468.0,1611470796.062
2242536.0,1611470796.101
2243892.0,1611470796.141
2245133.0,1611470796.183
2247710.0,1611470796.26
2246572.0,1611470796.222
2245405.0,1611470796.34
2243978.0,1611470796.381
2243702.0,1611470796.423
2243661.0,1611470796.502
2244220.0,1611470796.543
2244771.0,1611470796.582
2244932.0,1611470796.623
2245446.0,1611470796.663
2245808.0,1611470796.702
2243596.0,1611470796.461
2246721.0,1611470796.74
2247813.0,1611470796.781
2248933.0,1611470796.821
2249998.0,1611470796.861
2251281.0,1611470796.902
2252573.0,1611470796.941
2252657.0,1611470796.982
2250969.0,1611470797.024
2249193.0,1611470797.062
2248373.0,1611470797.1
2248358.0,1611470797.142
2246819.0,1611470796.301
2248178.0,1611470797.181
2248857.0,1611470797.222
2249011.0,1611470797.262
2249729.0,1611470797.342
2250472.0,1611470797.383
2249739.0,1611470797.302
2251296.0,1611470797.423
2252139.0,1611470797.461
2253424.0,1611470797.502
2254362.0,1611470797.541
2255649.0,1611470797.581
2257969.0,1611470797.662
2256842.0,1611470797.623
2257797.0,1611470797.702
2253537.0,1611470797.783
2252274.0,1611470797.821
2251872.0,1611470797.862
2251345.0,1611470797.901
2251100.0,1611470797.941
2255390.0,1611470797.743
2251387.0,1611470797.983
2251516.0,1611470798.023
2251558.0,1611470798.062
2251853.0,1611470798.103
2252543.0,1611470798.143
2253247.0,1611470798.181
2254073.0,1611470798.223
2254975.0,1611470798.261
2256136.0,1611470798.302
2258218.0,1611470798.382
2257155.0,1611470798.343
2257687.0,1611470798.423
2253044.0,1611470798.503
2255286.0,1611470798.464
2251992.0,1611470798.541
2250421.0,1611470798.662
2250804.0,1611470798.622
2250927.0,1611470798.703
2250778.0,1611470798.742
2251130.0,1611470798.582
2250891.0,1611470798.783
2251162.0,1611470798.825
2251644.0,1611470798.863
2252978.0,1611470798.943
2252370.0,1611470798.901
2253988.0,1611470798.982
2254961.0,1611470799.023
2256881.0,1611470799.102
2255773.0,1611470799.063
2253387.0,1611470799.182
2251422.0,1611470799.222
2255861.0,1611470799.14
2250244.0,1611470799.261
2249320.0,1611470799.302
2249033.0,1611470799.342
2249064.0,1611470799.382
2248955.0,1611470799.424
2249026.0,1611470799.462
2248842.0,1611470799.503
2248843.0,1611470799.544
2249227.0,1611470799.583
2249644.0,1611470799.624
2250812.0,1611470799.663
2252080.0,1611470799.702
2253054.0,1611470799.742
2254478.0,1611470799.783
2255598.0,1611470799.823
2255287.0,1611470799.863
2253087.0,1611470799.904
2251110.0,1611470799.943
2249466.0,1611470799.984
2248552.0,1611470800.024
2248166.0,1611470800.062
2248037.0,1611470800.102
2248184.0,1611470800.144
2247861.0,1611470800.183
2247860.0,1611470800.224
2248440.0,1611470800.303
2247988.0,1611470800.264
2249169.0,1611470800.344
2249640.0,1611470800.383
2250541.0,1611470800.423
2251834.0,1611470800.462
2252100.0,1611470800.504
2251686.0,1611470800.543
2249705.0,1611470800.583
2247184.0,1611470800.625
2246081.0,1611470800.663
2245573.0,1611470800.703
2245402.0,1611470800.744
2245563.0,1611470800.783
2245801.0,1611470800.824
2245435.0,1611470800.865
2245555.0,1611470800.904
2246084.0,1611470800.942
2246577.0,1611470800.984
2247043.0,1611470801.023
2248199.0,1611470801.063
2248937.0,1611470801.104
2250302.0,1611470801.184
2250004.0,1611470801.143
2248967.0,1611470801.226
2246114.0,1611470801.264
2244146.0,1611470801.302
2242925.0,1611470801.344
2241905.0,1611470801.383
2241483.0,1611470801.424
2241337.0,1611470801.465
2241371.0,1611470801.504
2241134.0,1611470801.544
2240910.0,1611470801.585
2241103.0,1611470801.625
2241490.0,1611470801.663
2242220.0,1611470801.704
2242911.0,1611470801.743
2243838.0,1611470801.783
2244620.0,1611470801.824
2244237.0,1611470801.863
2241786.0,1611470801.903
2238980.0,1611470801.944
2237048.0,1611470801.984
2235681.0,1611470802.025
2234654.0,1611470802.065
2234219.0,1611470802.104
2233905.0,1611470802.145
2233531.0,1611470802.186
2233402.0,1611470802.224
2233192.0,1611470802.263
2233196.0,1611470802.304
2233808.0,1611470802.344
2234195.0,1611470802.384
2234810.0,1611470802.426
2235851.0,1611470802.465
2236322.0,1611470802.505
2235159.0,1611470802.544
2232097.0,1611470802.583
2229642.0,1611470802.624
2227559.0,1611470802.665
2226209.0,1611470802.704
2225313.0,1611470802.744
2224569.0,1611470802.777
2224824.0,1611470802.817
2224056.0,1611470802.856
2223575.0,1611470802.897
2223782.0,1611470802.936
2223936.0,1611470802.977
2224202.0,1611470803.018
2224659.0,1611470803.057
2225257.0,1611470803.097
2226192.0,1611470803.138
2226950.0,1611470803.177
2225800.0,1611470803.218
2222942.0,1611470803.258
2220265.0,1611470803.297
2218291.0,1611470803.337
2216621.0,1611470803.379
2215699.0,1611470803.419
2215012.0,1611470803.458
2214696.0,1611470803.5
2214207.0,1611470803.539
2213417.0,1611470803.579
2213182.0,1611470803.621
2213447.0,1611470803.659
2213778.0,1611470803.698
2214152.0,1611470803.739
2214906.0,1611470803.778
2215407.0,1611470803.819
2216326.0,1611470803.86
2215743.0,1611470803.899
2213620.0,1611470803.939
2210692.0,1611470803.98
2208903.0,1611470804.02
2207460.0,1611470804.058
2206355.0,1611470804.099
2205897.0,1611470804.138
2205400.0,1611470804.221
2205557.0,1611470804.179
2205025.0,1611470804.258
2204491.0,1611470804.298
2204900.0,1611470804.339
2205035.0,1611470804.379
2205655.0,1611470804.42
2206291.0,1611470804.46
2207078.0,1611470804.499
2207992.0,1611470804.54
2203841.0,1611470804.621
2206669.0,1611470804.581
2201350.0,1611470804.658
2199375.0,1611470804.699
2198185.0,1611470804.739
2197447.0,1611470804.779
2197005.0,1611470804.821
2197059.0,1611470804.859
2196102.0,1611470804.98
2196531.0,1611470805.019
2196972.0,1611470805.06
2196456.0,1611470804.9
2196312.0,1611470804.941
2197747.0,1611470805.099
2199656.0,1611470805.18
2198746.0,1611470805.139
2200525.0,1611470805.22
2201426.0,1611470805.26
2200499.0,1611470805.301
2197797.0,1611470805.34
2192862.0,1611470805.42
2195028.0,1611470805.379
2189528.0,1611470805.54
2189297.0,1611470805.579
2189227.0,1611470805.62
2191364.0,1611470805.459
2190177.0,1611470805.499
2188786.0,1611470805.66
2189052.0,1611470805.74
2189651.0,1611470805.781
2190368.0,1611470805.821
2191275.0,1611470805.861
2188729.0,1611470805.699
2192061.0,1611470805.902
2193139.0,1611470805.939
2194224.0,1611470805.979
2195259.0,1611470806.021
2195119.0,1611470806.06
2192327.0,1611470806.1
2189534.0,1611470806.141
2187435.0,1611470806.18
2186232.0,1611470806.221
2184862.0,1611470806.262
2184540.0,1611470806.299
2184336.0,1611470806.339
2184033.0,1611470806.381
2183826.0,1611470806.421
2183836.0,1611470806.46
2183861.0,1611470806.501
2184574.0,1611470806.541
2185518.0,1611470806.581
2186483.0,1611470806.621
2187331.0,1611470806.659
2188529.0,1611470806.7
2189615.0,1611470806.741
2190986.0,1611470806.78
2192482.0,1611470806.821
2194000.0,1611470806.861
2195631.0,1611470806.9
2196135.0,1611470806.94
2194437.0,1611470806.982
2191610.0,1611470807.022
2189622.0,1611470807.061
2188488.0,1611470807.1
2187560.0,1611470807.14
2187081.0,1611470807.18
2186971.0,1611470807.222
2186989.0,1611470807.259
2186798.0,1611470807.3
2186834.0,1611470807.341
2187397.0,1611470807.38
2187960.0,1611470807.421
2188936.0,1611470807.462
2189783.0,1611470807.501
2191090.0,1611470807.541
2191940.0,1611470807.582
2193213.0,1611470807.62
2194503.0,1611470807.66
2195926.0,1611470807.701
2196853.0,1611470807.74
2195530.0,1611470807.781
2193217.0,1611470807.823
2191096.0,1611470807.861
2190353.0,1611470807.901
2189493.0,1611470807.943
2189157.0,1611470807.98
2189258.0,1611470808.021
2189445.0,1611470808.061
2189479.0,1611470808.101
2189328.0,1611470808.141
2189724.0,1611470808.182
2190328.0,1611470808.222
2191236.0,1611470808.262
2191892.0,1611470808.303
2193143.0,1611470808.34
2194398.0,1611470808.38
2195498.0,1611470808.422
2196390.0,1611470808.461
2195676.0,1611470808.501
2193373.0,1611470808.542
2191385.0,1611470808.582
2190092.0,1611470808.623
2189749.0,1611470808.661
2189394.0,1611470808.7
2189818.0,1611470808.741
2189958.0,1611470808.782
2190224.0,1611470808.822
2190383.0,1611470808.861
2190890.0,1611470808.903
2191810.0,1611470808.942
2192723.0,1611470808.982
2193727.0,1611470809.022
2195024.0,1611470809.061
2196494.0,1611470809.101
2197787.0,1611470809.142
2199141.0,1611470809.181
2199471.0,1611470809.222
2197120.0,1611470809.263
2194792.0,1611470809.302
2192810.0,1611470809.342
2191734.0,1611470809.381
2190902.0,1611470809.422
2190547.0,1611470809.461
2190720.0,1611470809.502
2190826.0,1611470809.541
2190538.0,1611470809.581
2190897.0,1611470809.623
2191368.0,1611470809.661
2191936.0,1611470809.701
2192983.0,1611470809.742
2194076.0,1611470809.781
2194967.0,1611470809.822
2196484.0,1611470809.863
2197651.0,1611470809.902
2198830.0,1611470809.942
2197824.0,1611470809.984
2195464.0,1611470810.022
2192863.0,1611470810.061
2191605.0,1611470810.102
2190525.0,1611470810.142
2190004.0,1611470810.182
2189439.0,1611470810.224
2189676.0,1611470810.261
2189740.0,1611470810.302
2189571.0,1611470810.343
2189738.0,1611470810.382
2190418.0,1611470810.423
2191403.0,1611470810.464
2192190.0,1611470810.503
2193436.0,1611470810.541
2194787.0,1611470810.582
2196039.0,1611470810.622
2197009.0,1611470810.662
2196950.0,1611470810.703
2194757.0,1611470810.742
2192207.0,1611470810.783
2190531.0,1611470810.825
2189563.0,1611470810.863
2188862.0,1611470810.901
2188847.0,1611470810.943
2189023.0,1611470810.982
2188846.0,1611470811.023
2189243.0,1611470811.063
2189133.0,1611470811.102
2189588.0,1611470811.143
2190399.0,1611470811.184
2191186.0,1611470811.224
2192159.0,1611470811.261
2193377.0,1611470811.303
2194638.0,1611470811.342
2195720.0,1611470811.382
2195066.0,1611470811.424
2192359.0,1611470811.463
2190487.0,1611470811.503
2189135.0,1611470811.544
2188120.0,1611470811.582
2187838.0,1611470811.623
2188002.0,1611470811.663
2188133.0,1611470811.702
2188217.0,1611470811.743
2188120.0,1611470811.784
2188817.0,1611470811.824
2189078.0,1611470811.863
2190059.0,1611470811.905
2190837.0,1611470811.944
2191968.0,1611470811.984
2193285.0,1611470812.025
2193467.0,1611470812.064
2191914.0,1611470812.102
2189342.0,1611470812.143
2187987.0,1611470812.182
2187190.0,1611470812.223
2186992.0,1611470812.264
2187175.0,1611470812.303
2187518.0,1611470812.343
2187592.0,1611470812.385
2187383.0,1611470812.425
2187523.0,1611470812.462
2188342.0,1611470812.503
2188883.0,1611470812.543
2190040.0,1611470812.583
2191259.0,1611470812.625
2192171.0,1611470812.663
2191705.0,1611470812.704
2189065.0,1611470812.745
2186579.0,1611470812.784
2184931.0,1611470812.823
2183698.0,1611470812.863
2183261.0,1611470812.903
2183140.0,1611470812.943
2183207.0,1611470812.984
2182967.0,1611470813.024
2182864.0,1611470813.064
2183293.0,1611470813.105
2183668.0,1611470813.144
2184363.0,1611470813.182
2185282.0,1611470813.224
2186580.0,1611470813.263
2187281.0,1611470813.302
2186537.0,1611470813.344
2183639.0,1611470813.383
2180889.0,1611470813.424
2179061.0,1611470813.464
2177655.0,1611470813.504
2176520.0,1611470813.544
2176085.0,1611470813.585
2175889.0,1611470813.625
2175592.0,1611470813.665
2175344.0,1611470813.704
2175678.0,1611470813.743
2175713.0,1611470813.783
2176285.0,1611470813.825
2177181.0,1611470813.864
2178023.0,1611470813.904
2179331.0,1611470813.945
2179840.0,1611470813.984
2177966.0,1611470814.025
2175110.0,1611470814.064
2172424.0,1611470814.103
2170916.0,1611470814.143
2169567.0,1611470814.185
2169081.0,1611470814.224
2168452.0,1611470814.264
2168454.0,1611470814.305
2168437.0,1611470814.345
2168500.0,1611470814.385
2168508.0,1611470814.425
2169125.0,1611470814.463
2170068.0,1611470814.503
2171167.0,1611470814.544
2172222.0,1611470814.583
2173361.0,1611470814.624
2174805.0,1611470814.665
2174819.0,1611470814.704
2172546.0,1611470814.744
2169816.0,1611470814.786
2168056.0,1611470814.826
2167074.0,1611470814.865
2166052.0,1611470814.906
2165956.0,1611470814.946
2166042.0,1611470814.986
2166008.0,1611470815.027
2165885.0,1611470815.066
2166264.0,1611470815.106
2166790.0,1611470815.147
2167531.0,1611470815.186
2169572.0,1611470815.267
2168602.0,1611470815.227
2172452.0,1611470815.346
2170918.0,1611470815.306
2173759.0,1611470815.387
2173325.0,1611470815.427
2170846.0,1611470815.467
2168586.0,1611470815.508
2166515.0,1611470815.587
2166108.0,1611470815.629
2167373.0,1611470815.547
2166498.0,1611470815.707
2166258.0,1611470815.667
2166395.0,1611470815.748
2166410.0,1611470815.787
2167300.0,1611470815.828
2167957.0,1611470815.869
2168932.0,1611470815.908
2169954.0,1611470815.948
2171279.0,1611470815.99
2172960.0,1611470816.028
2174119.0,1611470816.067
2174658.0,1611470816.108
2172857.0,1611470816.148
2170887.0,1611470816.188
2169650.0,1611470816.23
2169449.0,1611470816.268
2169062.0,1611470816.309
2169479.0,1611470816.35
2169945.0,1611470816.387
2170258.0,1611470816.428
2170777.0,1611470816.469
2171325.0,1611470816.508
2172061.0,1611470816.548
2173019.0,1611470816.589
2174457.0,1611470816.629
2175923.0,1611470816.669
2177539.0,1611470816.71
2178750.0,1611470816.788
2176879.0,1611470816.829
2178907.0,1611470816.747
2175196.0,1611470816.868
2174127.0,1611470816.908
2173823.0,1611470816.95
2173688.0,1611470816.989
2174245.0,1611470817.03
2174745.0,1611470817.067
2175043.0,1611470817.106
2175868.0,1611470817.146
2176385.0,1611470817.188
2177377.0,1611470817.228
2178554.0,1611470817.267
2179845.0,1611470817.309
2181389.0,1611470817.348
2183201.0,1611470817.388
2184718.0,1611470817.43
2185849.0,1611470817.468
2184755.0,1611470817.508
2182330.0,1611470817.549
2180072.0,1611470817.629
2180936.0,1611470817.588
2179817.0,1611470817.67
2179410.0,1611470817.709
2179738.0,1611470817.749
2180093.0,1611470817.791
2180684.0,1611470817.83
2180928.0,1611470817.868
2182071.0,1611470817.909
2184118.0,1611470817.989
2183129.0,1611470817.948
2187032.0,1611470818.069
2188335.0,1611470818.109
2185600.0,1611470818.031
2190228.0,1611470818.151
2191490.0,1611470818.19
2190474.0,1611470818.229
2186422.0,1611470818.308
2188229.0,1611470818.269
2185400.0,1611470818.39
2185324.0,1611470818.43
2185620.0,1611470818.47
2186143.0,1611470818.511
2185789.0,1611470818.349
2186371.0,1611470818.55
2187204.0,1611470818.588
2187646.0,1611470818.63
2188651.0,1611470818.669
2189803.0,1611470818.709
2191378.0,1611470818.75
2192698.0,1611470818.789
2194120.0,1611470818.83
2195508.0,1611470818.871
2196637.0,1611470818.91
2195455.0,1611470818.948
2193259.0,1611470818.99
2191925.0,1611470819.03
2191047.0,1611470819.069
2190853.0,1611470819.11
2190809.0,1611470819.15
2191222.0,1611470819.19
2191771.0,1611470819.232
2192010.0,1611470819.27
2192488.0,1611470819.309
2194233.0,1611470819.389
2196580.0,1611470819.471
2195572.0,1611470819.43
2193260.0,1611470819.35
2198330.0,1611470819.51
2199795.0,1611470819.55
2201026.0,1611470819.592
2200316.0,1611470819.629
2198288.0,1611470819.669
2196527.0,1611470819.71
2195936.0,1611470819.749
2195528.0,1611470819.789
2195732.0,1611470819.831
2196242.0,1611470819.87
2196738.0,1611470819.91
2196822.0,1611470819.951
2197226.0,1611470819.99
2197964.0,1611470820.032
2198881.0,1611470820.07
2199978.0,1611470820.109
2201332.0,1611470820.149
2203863.0,1611470820.231
2202746.0,1611470820.191
2202146.0,1611470820.311
2204060.0,1611470820.27
2200545.0,1611470820.351
2199537.0,1611470820.391
2199197.0,1611470820.431
2200377.0,1611470820.51
2199558.0,1611470820.469
2200634.0,1611470820.551
2200998.0,1611470820.59
2201334.0,1611470820.631
2202126.0,1611470820.672
2203009.0,1611470820.711
2204236.0,1611470820.751
2205383.0,1611470820.79
2206663.0,1611470820.83
2207555.0,1611470820.87
2206102.0,1611470820.911
2203942.0,1611470820.95
2202545.0,1611470820.991
2201553.0,1611470821.033
2201211.0,1611470821.071
2201883.0,1611470821.152
2202065.0,1611470821.19
2202277.0,1611470821.231
2201541.0,1611470821.111
2202665.0,1611470821.271
2203573.0,1611470821.31
2204400.0,1611470821.351
2205537.0,1611470821.392
2206623.0,1611470821.432
2207603.0,1611470821.471
2207202.0,1611470821.513
2204490.0,1611470821.55
2200805.0,1611470821.632
2202373.0,1611470821.59
2200266.0,1611470821.67
2199779.0,1611470821.711
2199745.0,1611470821.752
2199882.0,1611470821.791
2199999.0,1611470821.832
2200273.0,1611470821.871
2200752.0,1611470821.91
2201358.0,1611470821.95
2202400.0,1611470821.992
2203378.0,1611470822.032
2204578.0,1611470822.071
2204153.0,1611470822.112
2201869.0,1611470822.152
2197833.0,1611470822.231
2199326.0,1611470822.189
2196776.0,1611470822.269
2196455.0,1611470822.31
2196405.0,1611470822.351
2196425.0,1611470822.39
2196403.0,1611470822.431
2196337.0,1611470822.472
2196953.0,1611470822.511
2197219.0,1611470822.551
2198033.0,1611470822.593
2200193.0,1611470822.672
2201152.0,1611470822.711
2199072.0,1611470822.633
2197082.0,1611470822.791
2199526.0,1611470822.751
2193867.0,1611470822.871
2194915.0,1611470822.833
2192918.0,1611470822.912
2192933.0,1611470822.953
2192738.0,1611470822.992
2193100.0,1611470823.033
2193074.0,1611470823.072
2193161.0,1611470823.111
2193635.0,1611470823.151
2194134.0,1611470823.192
2195023.0,1611470823.232
2196263.0,1611470823.272
2197524.0,1611470823.313
2197319.0,1611470823.352
2195648.0,1611470823.393
2193101.0,1611470823.432
2191558.0,1611470823.471
2191050.0,1611470823.511
2190465.0,1611470823.553
2190574.0,1611470823.592
2190929.0,1611470823.633
2191013.0,1611470823.673
2191004.0,1611470823.712
2191313.0,1611470823.753
2191791.0,1611470823.792
2193027.0,1611470823.832
2193996.0,1611470823.871
2195092.0,1611470823.913
2195812.0,1611470823.952
2194505.0,1611470823.992
2192310.0,1611470824.034
2190641.0,1611470824.073
2189776.0,1611470824.113
2189592.0,1611470824.152
2189513.0,1611470824.191
2190287.0,1611470824.232
2190346.0,1611470824.273
2190510.0,1611470824.312
2191020.0,1611470824.352
2191455.0,1611470824.394
2192527.0,1611470824.434
2195047.0,1611470824.512
2196245.0,1611470824.552
2193696.0,1611470824.473
2196398.0,1611470824.592
2194429.0,1611470824.634
2190762.0,1611470824.712
2192172.0,1611470824.671
2190029.0,1611470824.753
2189523.0,1611470824.792
2189604.0,1611470824.833
2190136.0,1611470824.874
2190266.0,1611470824.913
2190744.0,1611470824.953
2191000.0,1611470824.993
2191894.0,1611470825.032
2192753.0,1611470825.072
2195346.0,1611470825.153
2194081.0,1611470825.113
2196978.0,1611470825.235
2195012.0,1611470825.273
2196465.0,1611470825.193
2192948.0,1611470825.314
2191626.0,1611470825.353
2190623.0,1611470825.392
2190307.0,1611470825.474
2190211.0,1611470825.433
2190673.0,1611470825.553
2191094.0,1611470825.594
2190606.0,1611470825.513
2191576.0,1611470825.634
2192270.0,1611470825.674
2193378.0,1611470825.713
2194389.0,1611470825.752
2195854.0,1611470825.792
2197076.0,1611470825.834
2198803.0,1611470825.873
2198831.0,1611470825.913
2197178.0,1611470825.954
2195005.0,1611470825.994
2193863.0,1611470826.035
2193173.0,1611470826.073
2192535.0,1611470826.112
2192600.0,1611470826.153
2193123.0,1611470826.234
2192773.0,1611470826.194
2193472.0,1611470826.273
2193930.0,1611470826.315
2194883.0,1611470826.354
2196937.0,1611470826.434
2198169.0,1611470826.472
2199526.0,1611470826.513
2200969.0,1611470826.554
2202592.0,1611470826.593
2203425.0,1611470826.634
2195697.0,1611470826.394
2201882.0,1611470826.675
2199807.0,1611470826.714
2198382.0,1611470826.754
2197589.0,1611470826.796
2197349.0,1611470826.836
2197489.0,1611470826.875
2197432.0,1611470826.916
2197934.0,1611470826.956
2197866.0,1611470826.996
2199059.0,1611470827.076
2199913.0,1611470827.116
2198501.0,1611470827.037
2201185.0,1611470827.157
2202206.0,1611470827.196
2203481.0,1611470827.237
2204881.0,1611470827.277
2206241.0,1611470827.316
2207764.0,1611470827.356
2207767.0,1611470827.398
2206300.0,1611470827.438
2204047.0,1611470827.477
2203120.0,1611470827.518
2202490.0,1611470827.558
2202203.0,1611470827.598
2202456.0,1611470827.638
2203015.0,1611470827.676
2203127.0,1611470827.716
2203241.0,1611470827.758
2203755.0,1611470827.797
2204403.0,1611470827.838
2205368.0,1611470827.878
2206426.0,1611470827.918
2207521.0,1611470827.958
2208657.0,1611470827.997
2210722.0,1611470828.077
2209769.0,1611470828.118
2207971.0,1611470828.157
2206678.0,1611470828.197
2206289.0,1611470828.239
2206164.0,1611470828.277
2206733.0,1611470828.317
2207187.0,1611470828.358
2210221.0,1611470828.037
2207733.0,1611470828.398
2208143.0,1611470828.439
2208492.0,1611470828.479
2209310.0,1611470828.516
2210331.0,1611470828.557
2211269.0,1611470828.598
2212609.0,1611470828.638
2213961.0,1611470828.677
2215513.0,1611470828.719
2215705.0,1611470828.758
2213859.0,1611470828.798
2211973.0,1611470828.84
2211015.0,1611470828.877
2210606.0,1611470828.917
2210276.0,1611470828.958
2210565.0,1611470828.997
2210999.0,1611470829.038
2211785.0,1611470829.079
2211857.0,1611470829.118
2212456.0,1611470829.158
2213323.0,1611470829.2
2214246.0,1611470829.237
2215267.0,1611470829.277
2216852.0,1611470829.318
2219630.0,1611470829.398
2218114.0,1611470829.358
2220108.0,1611470829.44
2218268.0,1611470829.478
2216194.0,1611470829.519
2214840.0,1611470829.558
2214023.0,1611470829.597
2213864.0,1611470829.638
2213543.0,1611470829.679
2214186.0,1611470829.718
2214264.0,1611470829.758
2214425.0,1611470829.799
2214732.0,1611470829.839
2215472.0,1611470829.876
2216594.0,1611470829.918
2217323.0,1611470829.958
2218758.0,1611470829.997
2219875.0,1611470830.039
2221084.0,1611470830.077
2222009.0,1611470830.118
2220557.0,1611470830.159
2218415.0,1611470830.198
2216674.0,1611470830.239
2215995.0,1611470830.28
2215396.0,1611470830.319
2215301.0,1611470830.359
2215484.0,1611470830.398
2215773.0,1611470830.438
2216240.0,1611470830.478
2216564.0,1611470830.519
2216922.0,1611470830.558
2222406.0,1611470830.759
2223489.0,1611470830.798
2222678.0,1611470830.839
2217549.0,1611470830.599
2221300.0,1611470830.719
2219860.0,1611470830.679
2220592.0,1611470830.879
2218804.0,1611470830.641
2218473.0,1611470830.918
2217756.0,1611470830.959
2217189.0,1611470831.0
2217149.0,1611470831.04
2217368.0,1611470831.08
2217753.0,1611470831.119
2217889.0,1611470831.158
2218170.0,1611470831.198
2218618.0,1611470831.24
2219234.0,1611470831.279
2220154.0,1611470831.319
2221156.0,1611470831.36
2222290.0,1611470831.4
2223900.0,1611470831.439
2223994.0,1611470831.479
2222555.0,1611470831.518
2220413.0,1611470831.559
2219247.0,1611470831.6
2218632.0,1611470831.64
2218721.0,1611470831.679
2219015.0,1611470831.721
2219409.0,1611470831.76
2219563.0,1611470831.798
2219506.0,1611470831.84
2220050.0,1611470831.879
2220741.0,1611470831.919
2221649.0,1611470831.96
2222519.0,1611470831.999
2223797.0,1611470832.04
2224898.0,1611470832.081
2224637.0,1611470832.12
2223074.0,1611470832.158
2220866.0,1611470832.199
2219531.0,1611470832.239
2218848.0,1611470832.279
2218884.0,1611470832.32
2219189.0,1611470832.359
2219308.0,1611470832.402
2219652.0,1611470832.439
2219937.0,1611470832.478
2220387.0,1611470832.518
2220889.0,1611470832.56
2221966.0,1611470832.599
2222943.0,1611470832.64
2224513.0,1611470832.68
2225604.0,1611470832.72
2225318.0,1611470832.76
2223043.0,1611470832.801
2220676.0,1611470832.841
2219172.0,1611470832.879
2218367.0,1611470832.92
2217897.0,1611470832.959
2217379.0,1611470832.999
2217688.0,1611470833.041
2217646.0,1611470833.08
2217586.0,1611470833.12
2217697.0,1611470833.161
2218273.0,1611470833.201
2219105.0,1611470833.239
2220067.0,1611470833.28
2221267.0,1611470833.319
2222141.0,1611470833.359
2222223.0,1611470833.401
2220061.0,1611470833.441
2217419.0,1611470833.48
2215468.0,1611470833.522
2214491.0,1611470833.561
2213747.0,1611470833.599
2213746.0,1611470833.641
2213642.0,1611470833.679
2213609.0,1611470833.72
2213560.0,1611470833.761
2213825.0,1611470833.8
2214162.0,1611470833.841
2215128.0,1611470833.882
2215666.0,1611470833.921
2216946.0,1611470833.959
2218252.0,1611470834.0
2218621.0,1611470834.04
2217264.0,1611470834.08
2214357.0,1611470834.121
2212570.0,1611470834.16
2211282.0,1611470834.201
2210301.0,1611470834.243
2210256.0,1611470834.281
2210093.0,1611470834.319
2210318.0,1611470834.361
2210243.0,1611470834.4
2210198.0,1611470834.441
2210615.0,1611470834.481
2211294.0,1611470834.521
2212060.0,1611470834.561
2213101.0,1611470834.602
2214146.0,1611470834.642
2215267.0,1611470834.679
2215497.0,1611470834.721
2213102.0,1611470834.76
2210825.0,1611470834.8
2208924.0,1611470834.842
2207972.0,1611470834.881
2207296.0,1611470834.921
2207153.0,1611470834.96
2207416.0,1611470834.999
2207277.0,1611470835.04
2207245.0,1611470835.081
2207420.0,1611470835.12
2208033.0,1611470835.16
2208411.0,1611470835.201
2209279.0,1611470835.241
2210314.0,1611470835.281
2211114.0,1611470835.322
2212444.0,1611470835.361
2211400.0,1611470835.401
2208883.0,1611470835.443
2206673.0,1611470835.481
2205554.0,1611470835.521
2204798.0,1611470835.562
2204625.0,1611470835.602
2204648.0,1611470835.643
2204926.0,1611470835.681
2204566.0,1611470835.72
2204842.0,1611470835.761
2205058.0,1611470835.802
2205443.0,1611470835.842
2206448.0,1611470835.881
2207259.0,1611470835.923
2208484.0,1611470835.962
2209094.0,1611470836.002
2207892.0,1611470836.042
2205593.0,1611470836.08
2203492.0,1611470836.121
2202569.0,1611470836.162
2202077.0,1611470836.201
2202098.0,1611470836.242
2202280.0,1611470836.283
2202475.0,1611470836.322
2202416.0,1611470836.362
2202424.0,1611470836.401
2202890.0,1611470836.441
2203820.0,1611470836.481
2204760.0,1611470836.522
2205816.0,1611470836.561
2207107.0,1611470836.602
2207043.0,1611470836.644
2205345.0,1611470836.681
2202715.0,1611470836.721
2200606.0,1611470836.763
2199379.0,1611470836.802
2198788.0,1611470836.843
2198218.0,1611470836.883
2198390.0,1611470836.923
2198597.0,1611470836.961
2198259.0,1611470837.002
2198517.0,1611470837.042
2199028.0,1611470837.081
2199870.0,1611470837.123
2200530.0,1611470837.162
2201717.0,1611470837.202
2203089.0,1611470837.244
2203891.0,1611470837.282
2202830.0,1611470837.322
2200171.0,1611470837.363
2197920.0,1611470837.403
2196394.0,1611470837.444
2195508.0,1611470837.482
2194904.0,1611470837.52
2195100.0,1611470837.561
2195307.0,1611470837.602
2195334.0,1611470837.642
2195150.0,1611470837.681
2195794.0,1611470837.722
2196324.0,1611470837.762
2197202.0,1611470837.802
2198602.0,1611470837.844
2199538.0,1611470837.882
2200731.0,1611470837.923
2201446.0,1611470837.964
2199768.0,1611470838.001
2197231.0,1611470838.042
2195487.0,1611470838.083
2194234.0,1611470838.122
2193315.0,1611470838.162
2193435.0,1611470838.204
2193277.0,1611470838.243
2193686.0,1611470838.283
2193893.0,1611470838.324
2194070.0,1611470838.361
2194429.0,1611470838.402
2195310.0,1611470838.444
2196404.0,1611470838.481
2197453.0,1611470838.522
2198530.0,1611470838.563
2200026.0,1611470838.602
2201719.0,1611470838.643
2201486.0,1611470838.684
2199643.0,1611470838.723
2197137.0,1611470838.763
2195775.0,1611470838.802
2195087.0,1611470838.841
2194827.0,1611470838.88
2194679.0,1611470838.919
2194912.0,1611470838.958
2195238.0,1611470838.997
2195445.0,1611470839.036
2195677.0,1611470839.075
2196707.0,1611470839.114
2197611.0,1611470839.153
2198571.0,1611470839.192
2200059.0,1611470839.231
2201402.0,1611470839.27
2202597.0,1611470839.309
2204042.0,1611470839.348
2203952.0,1611470839.387
2201860.0,1611470839.426
2199878.0,1611470839.465
2198996.0,1611470839.504
2198517.0,1611470839.543
2198291.0,1611470839.582
2198723.0,1611470839.621
2199259.0,1611470839.66
2199328.0,1611470839.699
2199648.0,1611470839.738
2200332.0,1611470839.777
2201109.0,1611470839.816
2202073.0,1611470839.855
2203347.0,1611470839.894
2204478.0,1611470839.933
2205932.0,1611470839.972
2206888.0,1611470840.011
2205983.0,1611470840.05
2204145.0,1611470840.089
2202668.0,1611470840.128
2201868.0,1611470840.167
2201934.0,1611470840.206
2202342.0,1611470840.245
2203129.0,1611470840.284
2203312.0,1611470840.323
2203492.0,1611470840.362
2203920.0,1611470840.401
2204858.0,1611470840.44
2205760.0,1611470840.48
2206797.0,1611470840.52
2208409.0,1611470840.56
2209437.0,1611470840.6
2210896.0,1611470840.64
2210703.0,1611470840.68
2208848.0,1611470840.72
2206663.0,1611470840.76
2205757.0,1611470840.8
2204926.0,1611470840.84
2204735.0,1611470840.88
2205132.0,1611470840.92
2205725.0,1611470840.96
2206010.0,1611470841.0
2206058.0,1611470841.04
2206582.0,1611470841.08
2207358.0,1611470841.12
2208364.0,1611470841.16
2209784.0,1611470841.2
2210835.0,1611470841.24
2212039.0,1611470841.28
2213408.0,1611470841.32
2213001.0,1611470841.36
2210565.0,1611470841.4
2208472.0,1611470841.44
2207515.0,1611470841.48
2206589.0,1611470841.52
2206248.0,1611470841.56
2206174.0,1611470841.6
2206402.0,1611470841.64
2206548.0,1611470841.68
2206754.0,1611470841.72
2207283.0,1611470841.76
2207964.0,1611470841.8
2209210.0,1611470841.84
2210252.0,1611470841.88
2211399.0,1611470841.92
2212575.0,1611470841.96
2214113.0,1611470842.0
2214844.0,1611470842.04
2213633.0,1611470842.08
2210984.0,1611470842.12
2209388.0,1611470842.16
2208659.0,1611470842.2
2208020.0,1611470842.24
2208085.0,1611470842.28
2208047.0,1611470842.32
2208553.0,1611470842.36
2208802.0,1611470842.4
2209160.0,1611470842.44
2209833.0,1611470842.48
2210684.0,1611470842.52
2211598.0,1611470842.56
2212735.0,1611470842.6
2214004.0,1611470842.64
2215420.0,1611470842.68
2216760.0,1611470842.72
2217039.0,1611470842.76
2214721.0,1611470842.8
2212864.0,1611470842.84
2211802.0,1611470842.88
2211329.0,1611470842.92
2210977.0,1611470842.96
2211404.0,1611470843.0
2211843.0,1611470843.04
2212329.0,1611470843.08
2212296.0,1611470843.12
2213227.0,1611470843.16
2213809.0,1611470843.2
2214909.0,1611470843.24
2215830.0,1611470843.28
2217161.0,1611470843.32
2218432.0,1611470843.36
2219974.0,1611470843.4
2220439.0,1611470843.44
2218551.0,1611470843.48
2216640.0,1611470843.52
2215741.0,1611470843.56
2215152.0,1611470843.6
2215111.0,1611470843.64
2215498.0,1611470843.68
2216137.0,1611470843.72
2216368.0,1611470843.76
2216983.0,1611470843.8
2217327.0,1611470843.84
2218246.0,1611470843.88
2219187.0,1611470843.92
2220287.0,1611470843.96
2221914.0,1611470844.0
2223038.0,1611470844.04
2224415.0,1611470844.08
2224115.0,1611470844.12
2222326.0,1611470844.16
2220620.0,1611470844.2
2219903.0,1611470844.24
2219576.0,1611470844.28
2219989.0,1611470844.32
2220544.0,1611470844.36
2221201.0,1611470844.4
2221361.0,1611470844.44
2221926.0,1611470844.48
2222585.0,1611470844.52
2223576.0,1611470844.56
2224756.0,1611470844.6
2225853.0,1611470844.64
2227214.0,1611470844.68
2228722.0,1611470844.72
2228396.0,1611470844.76
2224803.0,1611470844.84
2224086.0,1611470844.92
2224442.0,1611470844.96
2226482.0,1611470844.8
2224226.0,1611470844.88
2225081.0,1611470845.0
2225539.0,1611470845.04
2225877.0,1611470845.08
2226387.0,1611470845.12
2227055.0,1611470845.16
2227907.0,1611470845.2
2228970.0,1611470845.24
2230227.0,1611470845.28
2232734.0,1611470845.36
2232273.0,1611470845.4
2231464.0,1611470845.32
2230485.0,1611470845.44
2228749.0,1611470845.48
2227975.0,1611470845.52
2227856.0,1611470845.56
2228096.0,1611470845.6
2228767.0,1611470845.64
2229140.0,1611470845.68
2229315.0,1611470845.72
2229899.0,1611470845.76
2230122.0,1611470845.8
2231081.0,1611470845.84
2232129.0,1611470845.88
2233389.0,1611470845.92
2234571.0,1611470845.96
2235775.0,1611470846.0
2233236.0,1611470846.08
2235188.0,1611470846.04
2230402.0,1611470846.16
2230377.0,1611470846.24
2230916.0,1611470846.28
2231260.0,1611470846.32
2231584.0,1611470846.36
2231735.0,1611470846.4
2232222.0,1611470846.44
2232757.0,1611470846.48
2233917.0,1611470846.52
2234880.0,1611470846.56
2230039.0,1611470846.2
2231347.0,1611470846.12
2236051.0,1611470846.6
2236409.0,1611470846.64
2235046.0,1611470846.68
2232815.0,1611470846.72
2231511.0,1611470846.76
2230693.0,1611470846.8
2230530.0,1611470846.84
2230596.0,1611470846.88
2230958.0,1611470846.92
2231070.0,1611470846.96
2230924.0,1611470847.0
2231441.0,1611470847.04
2231805.0,1611470847.08
2232471.0,1611470847.12
2233309.0,1611470847.16
2234476.0,1611470847.2
2235365.0,1611470847.24
2234430.0,1611470847.28
2231692.0,1611470847.32
2229351.0,1611470847.36
2228043.0,1611470847.4
2227341.0,1611470847.44
2227053.0,1611470847.48
2226972.0,1611470847.52
2227020.0,1611470847.56
2226745.0,1611470847.64
2227065.0,1611470847.68
2228236.0,1611470847.76
2228928.0,1611470847.8
2229718.0,1611470847.84
2229833.0,1611470847.88
2227750.0,1611470847.92
2224820.0,1611470847.96
2226847.0,1611470847.6
2227458.0,1611470847.72
2220917.0,1611470848.04
2220141.0,1611470848.08
2219827.0,1611470848.12
2219370.0,1611470848.16
2219228.0,1611470848.2
2218686.0,1611470848.24
2218591.0,1611470848.28
2218792.0,1611470848.32
2218981.0,1611470848.36
2220048.0,1611470848.4
2220660.0,1611470848.44
2221459.0,1611470848.48
2222484.0,1611470848.0
2221392.0,1611470848.52
2219267.0,1611470848.56
2216265.0,1611470848.6
2213876.0,1611470848.64
2212500.0,1611470848.68
2211548.0,1611470848.72
2210967.0,1611470848.76
2210750.0,1611470848.8
2210506.0,1611470848.84
2210039.0,1611470848.88
2210056.0,1611470848.92
2210358.0,1611470848.96
2210598.0,1611470849.0
2211173.0,1611470849.04
2212282.0,1611470849.08
2213293.0,1611470849.12
2213867.0,1611470849.16
2212704.0,1611470849.2
2209935.0,1611470849.24
2207177.0,1611470849.28
2205461.0,1611470849.32
2204023.0,1611470849.36
2203438.0,1611470849.4
2203189.0,1611470849.44
2203024.0,1611470849.48
2202813.0,1611470849.52
2202403.0,1611470849.56
2202475.0,1611470849.6
2203008.0,1611470849.64
2203436.0,1611470849.68
2204278.0,1611470849.72
2205073.0,1611470849.76
2206291.0,1611470849.8
2205939.0,1611470849.84
2203780.0,1611470849.88
2200720.0,1611470849.92
2198685.0,1611470849.96
2197356.0,1611470850.0
2196479.0,1611470850.04
2196213.0,1611470850.08
2196009.0,1611470850.12
2195727.0,1611470850.16
2195223.0,1611470850.2
2195183.0,1611470850.24
2195537.0,1611470850.28
2195869.0,1611470850.32
2196780.0,1611470850.36
2197549.0,1611470850.4
2198611.0,1611470850.44
2199476.0,1611470850.48
2198587.0,1611470850.52
2196027.0,1611470850.56
2193320.0,1611470850.6
2191697.0,1611470850.64
2190594.0,1611470850.68
2189886.0,1611470850.72
2190020.0,1611470850.757
2189445.0,1611470850.796
2189300.0,1611470850.836
2189092.0,1611470850.877
2189145.0,1611470850.916
2189427.0,1611470850.956
2190321.0,1611470850.998
2190964.0,1611470851.036
2191941.0,1611470851.076
2193017.0,1611470851.118
2193455.0,1611470851.157
2191546.0,1611470851.197
2188959.0,1611470851.238
2187012.0,1611470851.277
2185836.0,1611470851.317
2185300.0,1611470851.358
2185185.0,1611470851.398
2185111.0,1611470851.437
2184934.0,1611470851.478
2184873.0,1611470851.517
2185002.0,1611470851.557
2185230.0,1611470851.599
2185746.0,1611470851.637
2186864.0,1611470851.678
2187618.0,1611470851.719
2188828.0,1611470851.758
2189303.0,1611470851.798
2187828.0,1611470851.839
2185166.0,1611470851.878
2183242.0,1611470851.918
2182167.0,1611470851.959
2181260.0,1611470852.079
2181670.0,1611470852.118
2181169.0,1611470852.158
2181420.0,1611470852.2
2181932.0,1611470852.239
2182824.0,1611470852.279
2183905.0,1611470852.32
2181552.0,1611470851.999
2184744.0,1611470852.359
2185890.0,1611470852.399
2187157.0,1611470852.44
2186277.0,1611470852.519
2181411.0,1611470852.038
2183431.0,1611470852.56
2181060.0,1611470852.6
2179585.0,1611470852.639
2187895.0,1611470852.479
2178451.0,1611470852.681
2177713.0,1611470852.72
2177580.0,1611470852.76
2177544.0,1611470852.801
2177354.0,1611470852.84
2177501.0,1611470852.88
2177768.0,1611470852.921
2178259.0,1611470852.96
2178855.0,1611470853.001
2181083.0,1611470853.08
2184688.0,1611470853.201
2184215.0,1611470853.241
2179210.0,1611470853.321
2181641.0,1611470853.282
2182268.0,1611470853.121
2183447.0,1611470853.162
2180021.0,1611470853.041
2177618.0,1611470853.361
2176381.0,1611470853.403
2175255.0,1611470853.441
2175204.0,1611470853.522
2175002.0,1611470853.561
2174834.0,1611470853.602
2175106.0,1611470853.643
2175584.0,1611470853.682
2176271.0,1611470853.722
2177215.0,1611470853.763
2178217.0,1611470853.803
2179464.0,1611470853.842
2180589.0,1611470853.883
2182066.0,1611470853.922
2183648.0,1611470853.962
2185037.0,1611470854.004
2181909.0,1611470854.083
2179640.0,1611470854.124
2178192.0,1611470854.163
2175159.0,1611470853.481
2184215.0,1611470854.043
2177438.0,1611470854.204
2176583.0,1611470854.244
2176860.0,1611470854.404
2176638.0,1611470854.323
2177081.0,1611470854.444
2176882.0,1611470854.364
2177773.0,1611470854.485
2178530.0,1611470854.524
2180905.0,1611470854.606
2182057.0,1611470854.644
2183535.0,1611470854.684
2176576.0,1611470854.283
2184920.0,1611470854.725
2179748.0,1611470854.564
2186370.0,1611470854.764
2188044.0,1611470854.805
2188744.0,1611470854.845
2186932.0,1611470854.884
2184814.0,1611470854.925
2183467.0,1611470854.966
2182370.0,1611470855.005
2182015.0,1611470855.045
2181950.0,1611470855.086
2182272.0,1611470855.125
2182459.0,1611470855.165
2182636.0,1611470855.207
2183175.0,1611470855.245
2183825.0,1611470855.285
2184547.0,1611470855.326
2185771.0,1611470855.366
2186824.0,1611470855.406
2188308.0,1611470855.447
2189504.0,1611470855.486
2190781.0,1611470855.526
2192434.0,1611470855.567
2193965.0,1611470855.607
2194260.0,1611470855.646
2192539.0,1611470855.687
2190553.0,1611470855.726
2189561.0,1611470855.766
2189320.0,1611470855.808
2189224.0,1611470855.847
2189673.0,1611470855.887
2190063.0,1611470855.928
2190207.0,1611470855.967
2191130.0,1611470856.048
2190446.0,1611470856.008
2191897.0,1611470856.087
2194276.0,1611470856.168
2192939.0,1611470856.127
2196788.0,1611470856.248
2198614.0,1611470856.289
2195585.0,1611470856.208
2199489.0,1611470856.328
2199616.0,1611470856.368
2197883.0,1611470856.41
2195814.0,1611470856.448
2195090.0,1611470856.488
2195002.0,1611470856.529
2195045.0,1611470856.568
2195481.0,1611470856.609
2196020.0,1611470856.65
2196503.0,1611470856.689
2197014.0,1611470856.729
2197690.0,1611470856.77
2198577.0,1611470856.81
2199712.0,1611470856.849
2201152.0,1611470856.89
2202403.0,1611470856.929
2203769.0,1611470856.969
2205468.0,1611470857.011
2206829.0,1611470857.049
2207042.0,1611470857.09
2205013.0,1611470857.131
2202901.0,1611470857.17
2201293.0,1611470857.251
2201578.0,1611470857.211
2200831.0,1611470857.33
2200881.0,1611470857.29
2201446.0,1611470857.371
2201576.0,1611470857.411
2201700.0,1611470857.45
2202308.0,1611470857.492
2202954.0,1611470857.531
2203956.0,1611470857.571
2204983.0,1611470857.613
2206315.0,1611470857.651
2207575.0,1611470857.691
2209140.0,1611470857.732
2210405.0,1611470857.771
2210002.0,1611470857.812
2207797.0,1611470857.852
2205945.0,1611470857.891
2204672.0,1611470857.932
2204184.0,1611470857.973
2203928.0,1611470858.012
2204243.0,1611470858.052
2204592.0,1611470858.093
2204896.0,1611470858.132
2205134.0,1611470858.172
2205770.0,1611470858.214
2206487.0,1611470858.252
2207495.0,1611470858.292
2208499.0,1611470858.333
2209849.0,1611470858.373
2211320.0,1611470858.413
2212589.0,1611470858.454
2214016.0,1611470858.493
2214679.0,1611470858.533
2213670.0,1611470858.574
2211102.0,1611470858.614
2209513.0,1611470858.653
2208831.0,1611470858.694
2208347.0,1611470858.734
2208600.0,1611470858.816
2208882.0,1611470858.854
2209256.0,1611470858.894
2209511.0,1611470858.935
2210129.0,1611470858.974
2211056.0,1611470859.015
2211930.0,1611470859.056
2217052.0,1611470859.216
2212932.0,1611470859.095
2215566.0,1611470859.176
2208223.0,1611470858.774
2214338.0,1611470859.135
2218176.0,1611470859.255
2217961.0,1611470859.296
2215942.0,1611470859.335
2214065.0,1611470859.375
2212684.0,1611470859.417
2212297.0,1611470859.455
2212099.0,1611470859.496
2212237.0,1611470859.537
2212783.0,1611470859.576
2212839.0,1611470859.617
2212978.0,1611470859.657
2213316.0,1611470859.696
2213938.0,1611470859.736
2214657.0,1611470859.777
2215849.0,1611470859.817
2216954.0,1611470859.856
2218111.0,1611470859.897
2219605.0,1611470859.936
2219723.0,1611470859.976
2218290.0,1611470860.018
2216103.0,1611470860.057
2214908.0,1611470860.097
2214310.0,1611470860.138
2214279.0,1611470860.177
2214774.0,1611470860.218
2215064.0,1611470860.258
2215123.0,1611470860.297
2215362.0,1611470860.337
2215532.0,1611470860.378
2216241.0,1611470860.418
2216776.0,1611470860.457
2217937.0,1611470860.499
2219095.0,1611470860.538
2220232.0,1611470860.578
2221059.0,1611470860.619
2219637.0,1611470860.658
2217164.0,1611470860.698
2215516.0,1611470860.739
2214589.0,1611470860.778
2214347.0,1611470860.819
2214168.0,1611470860.859
2214331.0,1611470860.898
2214548.0,1611470860.938
2214607.0,1611470860.979
2214810.0,1611470861.019
2215267.0,1611470861.059
2215830.0,1611470861.1
2216678.0,1611470861.139
2217828.0,1611470861.179
2219018.0,1611470861.221
2220089.0,1611470861.259
2220479.0,1611470861.299
2218694.0,1611470861.34
2215847.0,1611470861.379
2213652.0,1611470861.42
2212700.0,1611470861.46
2211611.0,1611470861.499
2210977.0,1611470861.539
2211078.0,1611470861.581
2210791.0,1611470861.62
2210686.0,1611470861.66
2210731.0,1611470861.74
2210665.0,1611470861.701
2211264.0,1611470861.78
2212017.0,1611470861.822
2212725.0,1611470861.86
2213766.0,1611470861.9
2214897.0,1611470861.941
2215199.0,1611470861.98
2213812.0,1611470862.021
2210739.0,1611470862.062
2208743.0,1611470862.101
2207224.0,1611470862.141
2206413.0,1611470862.182
2205539.0,1611470862.222
2205251.0,1611470862.261
2205138.0,1611470862.302
2204955.0,1611470862.341
2204750.0,1611470862.381
2205628.0,1611470862.461
2204983.0,1611470862.423
2206668.0,1611470862.543
2207669.0,1611470862.582
2208687.0,1611470862.622
2209927.0,1611470862.663
2210482.0,1611470862.702
2209053.0,1611470862.742
2206250.0,1611470862.83
2205938.0,1611470862.501
2202601.0,1611470862.909
2201449.0,1611470862.95
2204054.0,1611470862.87
2200897.0,1611470862.989
2200368.0,1611470863.029
2200301.0,1611470863.071
2200267.0,1611470863.11
2200014.0,1611470863.15
2200209.0,1611470863.191
2200455.0,1611470863.23
2201290.0,1611470863.271
2201903.0,1611470863.311
2203006.0,1611470863.35
2203911.0,1611470863.39
2205855.0,1611470863.471
2204309.0,1611470863.51
2201567.0,1611470863.552
2199284.0,1611470863.591
2198147.0,1611470863.631
2197516.0,1611470863.673
2197162.0,1611470863.711
2196914.0,1611470863.751
2196991.0,1611470863.792
2196830.0,1611470863.831
2196477.0,1611470863.872
2196730.0,1611470863.912
2197355.0,1611470863.951
2197813.0,1611470863.991
2198654.0,1611470864.033
2199590.0,1611470864.072
2204907.0,1611470863.431
2200522.0,1611470864.112
2201308.0,1611470864.153
2200048.0,1611470864.192
2197657.0,1611470864.232
2195852.0,1611470864.274
2194784.0,1611470864.312
2194191.0,1611470864.352
2194101.0,1611470864.393
2194195.0,1611470864.433
2194492.0,1611470864.473
2194447.0,1611470864.514
2194507.0,1611470864.553
2194917.0,1611470864.593
2195685.0,1611470864.634
2196606.0,1611470864.674
2197583.0,1611470864.713
2198550.0,1611470864.754
2200187.0,1611470864.793
2201010.0,1611470864.833
2199998.0,1611470864.875
2197352.0,1611470864.914
2193584.0,1611470864.995
2195282.0,1611470864.954
2192947.0,1611470865.034
2192256.0,1611470865.115
2192278.0,1611470865.075
2192365.0,1611470865.154
2192289.0,1611470865.194
2192262.0,1611470865.235
2192815.0,1611470865.275
2193233.0,1611470865.315
2194036.0,1611470865.356
2195040.0,1611470865.395
2197490.0,1611470865.477
2198600.0,1611470865.515
2199983.0,1611470865.555
2196130.0,1611470865.435
2200069.0,1611470865.596
2198177.0,1611470865.635
2195415.0,1611470865.676
2193648.0,1611470865.716
2192531.0,1611470865.756
2191570.0,1611470865.796
2191364.0,1611470865.837
2191295.0,1611470865.877
2191334.0,1611470865.916
2191354.0,1611470865.957
2191303.0,1611470865.996
2191814.0,1611470866.036
2192399.0,1611470866.078
2193222.0,1611470866.117
2194255.0,1611470866.157
2195573.0,1611470866.198
2196606.0,1611470866.237
2197922.0,1611470866.278
2198397.0,1611470866.318
2196869.0,1611470866.357
2194410.0,1611470866.397
2192694.0,1611470866.438
2191530.0,1611470866.478
2190732.0,1611470866.518
2190828.0,1611470866.559
2190655.0,1611470866.598
2190823.0,1611470866.638
2190868.0,1611470866.68
2191093.0,1611470866.718
2191375.0,1611470866.758
2192468.0,1611470866.799
2193218.0,1611470866.838
2194227.0,1611470866.879
2195302.0,1611470866.92
2196484.0,1611470866.959
2197751.0,1611470866.999
2198037.0,1611470867.04
2196531.0,1611470867.08
2194210.0,1611470867.119
2192962.0,1611470867.16
2192108.0,1611470867.239
2191909.0,1611470867.281
2192240.0,1611470867.199
2192005.0,1611470867.32
2192150.0,1611470867.36
2192317.0,1611470867.401
2192303.0,1611470867.44
2192904.0,1611470867.481
2195568.0,1611470867.6
2196850.0,1611470867.642
2193682.0,1611470867.521
2198059.0,1611470867.681
2197859.0,1611470867.721
2195683.0,1611470867.762
2193702.0,1611470867.801
2192272.0,1611470867.841
2191994.0,1611470867.883
2191734.0,1611470867.921
2194602.0,1611470867.56
2192014.0,1611470867.961
2192228.0,1611470868.002
2192410.0,1611470868.042
2192449.0,1611470868.082
2192862.0,1611470868.123
2193570.0,1611470868.162
2194420.0,1611470868.202
2195637.0,1611470868.243
2196741.0,1611470868.283
2197905.0,1611470868.322
2199047.0,1611470868.363
2198755.0,1611470868.403
2196570.0,1611470868.443
2194118.0,1611470868.485
2192515.0,1611470868.523
2191735.0,1611470868.563
2190828.0,1611470868.604
2190535.0,1611470868.643
2190874.0,1611470868.684
2190551.0,1611470868.724
2190561.0,1611470868.764
2190777.0,1611470868.804
2192990.0,1611470868.924
2195002.0,1611470869.004
2196194.0,1611470869.045
2191981.0,1611470868.885
2196202.0,1611470869.086
2193879.0,1611470869.125
2193930.0,1611470868.965
2191203.0,1611470868.845
2191578.0,1611470869.165
2189611.0,1611470869.206
2186672.0,1611470869.326
2187180.0,1611470869.286
2186716.0,1611470869.365
2188469.0,1611470869.245
2186653.0,1611470869.406
2186577.0,1611470869.447
2186864.0,1611470869.487
2186816.0,1611470869.526
2187578.0,1611470869.567
2188351.0,1611470869.606
2189281.0,1611470869.646
2190415.0,1611470869.688
2191502.0,1611470869.727
2192432.0,1611470869.767
2186208.0,1611470869.888
2188656.0,1611470869.847
2184843.0,1611470869.928
2191023.0,1611470869.808
2183980.0,1611470869.967
2183224.0,1611470870.008
2183380.0,1611470870.049
2183222.0,1611470870.088
2183003.0,1611470870.128
2183160.0,1611470870.208
2184496.0,1611470870.29
2185266.0,1611470870.328
2183871.0,1611470870.248
2186340.0,1611470870.368
2187634.0,1611470870.409
2188747.0,1611470870.448
2189377.0,1611470870.489
2183243.0,1611470870.169
2188254.0,1611470870.529
2185693.0,1611470870.568
2183689.0,1611470870.609
2182467.0,1611470870.65
2181931.0,1611470870.689
2181445.0,1611470870.729
2181532.0,1611470870.809
2181542.0,1611470870.77
2181472.0,1611470870.849
2181362.0,1611470870.891
2181810.0,1611470870.929
2182494.0,1611470870.969
2183126.0,1611470871.01
2184325.0,1611470871.049
2185210.0,1611470871.09
2186499.0,1611470871.131
2187140.0,1611470871.17
2186083.0,1611470871.21
2180767.0,1611470871.41
2181279.0,1611470871.45
2180758.0,1611470871.371
2181378.0,1611470871.53
2182251.0,1611470871.29
2183863.0,1611470871.251
2181207.0,1611470871.492
2181540.0,1611470871.57
2181142.0,1611470871.33
2183228.0,1611470871.651
2182290.0,1611470871.612
2184019.0,1611470871.691
2184977.0,1611470871.732
2186252.0,1611470871.771
2187805.0,1611470871.811
2188108.0,1611470871.852
2186342.0,1611470871.892
2183882.0,1611470871.931
2182089.0,1611470871.972
2181005.0,1611470872.011
2180571.0,1611470872.051
2180614.0,1611470872.093
2180434.0,1611470872.132
2180498.0,1611470872.172
2180656.0,1611470872.213
2180860.0,1611470872.252
2181294.0,1611470872.293
2182014.0,1611470872.333
2183131.0,1611470872.372
2184199.0,1611470872.412
2185168.0,1611470872.453
2186788.0,1611470872.493
2187286.0,1611470872.532
2186017.0,1611470872.573
2183420.0,1611470872.612
2181459.0,1611470872.65
2180081.0,1611470872.692
2179197.0,1611470872.731
2178608.0,1611470872.771
2178898.0,1611470872.812
2178905.0,1611470872.851
2179124.0,1611470872.933
2181025.0,1611470873.052
2179428.0,1611470872.972
2179119.0,1611470872.892
2180122.0,1611470873.01
2181903.0,1611470873.091
2183306.0,1611470873.131
2184504.0,1611470873.172
2186038.0,1611470873.212
2186675.0,1611470873.252
2182842.0,1611470873.332
2185308.0,1611470873.294
2179724.0,1611470873.411
2180832.0,1611470873.37
2179084.0,1611470873.45
2178736.0,1611470873.491
2178510.0,1611470873.531
2178897.0,1611470873.571
2178922.0,1611470873.611
2180152.0,1611470873.731
2178959.0,1611470873.652
2181033.0,1611470873.773
2179468.0,1611470873.692
2183454.0,1611470873.852
2184482.0,1611470873.894
2182170.0,1611470873.812
2186033.0,1611470873.933
2186999.0,1611470873.971
2186679.0,1611470874.012
2184316.0,1611470874.051
2182508.0,1611470874.092
2181488.0,1611470874.133
2180722.0,1611470874.172
2180531.0,1611470874.212
2180702.0,1611470874.253
2181164.0,1611470874.331
2182114.0,1611470874.452
2184422.0,1611470874.532
2180922.0,1611470874.293
2185719.0,1611470874.573
2183231.0,1611470874.494
2186912.0,1611470874.614
2181823.0,1611470874.411
2188388.0,1611470874.653
2189037.0,1611470874.692
2187689.0,1611470874.732
2181116.0,1611470874.372
2185478.0,1611470874.772
2184042.0,1611470874.812
2183477.0,1611470874.894
2184938.0,1611470875.013
2184022.0,1611470874.933
2183643.0,1611470874.854
2184892.0,1611470875.053
2184387.0,1611470874.974
2185393.0,1611470875.095
2186285.0,1611470875.133
2186885.0,1611470875.173
2188313.0,1611470875.214
2190912.0,1611470875.294
2189460.0,1611470875.253
2192292.0,1611470875.335
2192824.0,1611470875.375
2191291.0,1611470875.414
2189185.0,1611470875.456
2187225.0,1611470875.535
2187804.0,1611470875.496
2186904.0,1611470875.576
2186887.0,1611470875.616
2187489.0,1611470875.656
2187910.0,1611470875.698
2188064.0,1611470875.736
2188673.0,1611470875.775
2189396.0,1611470875.816
2190499.0,1611470875.855
2191600.0,1611470875.896
2192941.0,1611470875.936
2194253.0,1611470875.975
2195836.0,1611470876.016
2196894.0,1611470876.057
2196272.0,1611470876.097
2194208.0,1611470876.136
2192026.0,1611470876.178
2190998.0,1611470876.215
2190356.0,1611470876.335
2190242.0,1611470876.297
2190870.0,1611470876.375
2191120.0,1611470876.456
2191644.0,1611470876.496
2192328.0,1611470876.537
2190316.0,1611470876.255
2190855.0,1611470876.416
2193399.0,1611470876.576
2194213.0,1611470876.617
2195771.0,1611470876.658
2197094.0,1611470876.698
2198530.0,1611470876.735
2199423.0,1611470876.776
2198602.0,1611470876.816
2196038.0,1611470876.856
2194167.0,1611470876.898
2193005.0,1611470876.936
2192361.0,1611470876.977
2192260.0,1611470877.018
2192171.0,1611470877.057
2192630.0,1611470877.096
2192709.0,1611470877.136
2192902.0,1611470877.176
2193320.0,1611470877.216
2193965.0,1611470877.257
2194724.0,1611470877.297
2195946.0,1611470877.337
2197109.0,1611470877.378
2198175.0,1611470877.417
2199613.0,1611470877.455
2199937.0,1611470877.497
2198245.0,1611470877.536
2195744.0,1611470877.576
2194283.0,1611470877.617
2193202.0,1611470877.657
2192942.0,1611470877.698
2192982.0,1611470877.738
2193291.0,1611470877.777
2193296.0,1611470877.816
2193212.0,1611470877.897
2193052.0,1611470877.857
2193846.0,1611470877.936
2194463.0,1611470877.978
2195346.0,1611470878.017
2196529.0,1611470878.057
2197573.0,1611470878.099
2198565.0,1611470878.138
2198989.0,1611470878.176
2197025.0,1611470878.217
2194779.0,1611470878.256
2193152.0,1611470878.297
2192772.0,1611470878.338
2192297.0,1611470878.377
2192369.0,1611470878.417
2192502.0,1611470878.459
2192692.0,1611470878.496
2192593.0,1611470878.535
2192671.0,1611470878.576
2193472.0,1611470878.616
2194187.0,1611470878.656
2195101.0,1611470878.698
2196136.0,1611470878.736
2197268.0,1611470878.776
2197863.0,1611470878.818
2196585.0,1611470878.857
2193910.0,1611470878.898
2191683.0,1611470878.938
2190617.0,1611470878.977
2189888.0,1611470879.018
2189495.0,1611470879.059
2189366.0,1611470879.097
2189419.0,1611470879.136
2189222.0,1611470879.178
2189252.0,1611470879.217
2189739.0,1611470879.257
2190171.0,1611470879.299
2190713.0,1611470879.337
2191963.0,1611470879.377
2193051.0,1611470879.418
2194219.0,1611470879.458
2194573.0,1611470879.499
2192899.0,1611470879.539
2189765.0,1611470879.578
2187404.0,1611470879.616
2185975.0,1611470879.658
2184914.0,1611470879.698
2184194.0,1611470879.737
2183973.0,1611470879.778
2183826.0,1611470879.818
2183611.0,1611470879.858
2183545.0,1611470879.9
2183510.0,1611470879.938
2183927.0,1611470879.977
2184731.0,1611470880.018
2185601.0,1611470880.057
2186474.0,1611470880.098
2187525.0,1611470880.139
2188333.0,1611470880.178
2187482.0,1611470880.218
2184524.0,1611470880.259
2181783.0,1611470880.299
2179940.0,1611470880.337
2178631.0,1611470880.378
2177564.0,1611470880.417
2177477.0,1611470880.458
2177239.0,1611470880.5
2176868.0,1611470880.537
2176869.0,1611470880.577
2176544.0,1611470880.619
2177024.0,1611470880.658
2177808.0,1611470880.699
2178565.0,1611470880.739
2179384.0,1611470880.779
2180610.0,1611470880.819
2181537.0,1611470880.858
2180396.0,1611470880.898
2177519.0,1611470880.938
2174798.0,1611470880.979
2172991.0,1611470881.018
2171673.0,1611470881.058
2170974.0,1611470881.1
2170711.0,1611470881.138
2170577.0,1611470881.178
2170221.0,1611470881.22
2169971.0,1611470881.259
2169964.0,1611470881.3
2170294.0,1611470881.338
2170894.0,1611470881.378
2171666.0,1611470881.418
2172572.0,1611470881.459
2173576.0,1611470881.499
2173736.0,1611470881.539
2171397.0,1611470881.58
2168612.0,1611470881.619
2166664.0,1611470881.659
2165542.0,1611470881.699
2164614.0,1611470881.738
2164670.0,1611470881.778
2164480.0,1611470881.819
2164313.0,1611470881.858
2163867.0,1611470881.9
2163860.0,1611470881.94
2164336.0,1611470881.979
2165217.0,1611470882.02
2165938.0,1611470882.059
2166957.0,1611470882.099
2167861.0,1611470882.138
2166920.0,1611470882.18
2164017.0,1611470882.219
2161281.0,1611470882.259
2159493.0,1611470882.301
2158057.0,1611470882.338
2157507.0,1611470882.379
2157397.0,1611470882.42
2157521.0,1611470882.459
2156901.0,1611470882.5
2156905.0,1611470882.541
2156947.0,1611470882.578
2157296.0,1611470882.618
2158198.0,1611470882.659
2158954.0,1611470882.699
2159998.0,1611470882.739
2161238.0,1611470882.78
2160912.0,1611470882.819
2158171.0,1611470882.86
2154989.0,1611470882.902
2152409.0,1611470882.938
2150893.0,1611470882.978
2149341.0,1611470883.02
2148641.0,1611470883.059
2148169.0,1611470883.1
2148008.0,1611470883.14
2147369.0,1611470883.18
2147349.0,1611470883.22
2147450.0,1611470883.261
2148183.0,1611470883.299
2148681.0,1611470883.339
2149886.0,1611470883.38
2150740.0,1611470883.419
2152096.0,1611470883.459
2151857.0,1611470883.501
2149309.0,1611470883.539
2146214.0,1611470883.579
2143654.0,1611470883.62
2141933.0,1611470883.659
2140426.0,1611470883.7
2139917.0,1611470883.74
2139376.0,1611470883.78
2139116.0,1611470883.861
2139311.0,1611470883.82
2139150.0,1611470883.901
2139277.0,1611470883.939
2139946.0,1611470883.98
2140920.0,1611470884.019
2142064.0,1611470884.059
2143251.0,1611470884.101
2144302.0,1611470884.14
2145808.0,1611470884.18
2147234.0,1611470884.221
2146880.0,1611470884.261
2141436.0,1611470884.34
2138380.0,1611470884.419
2137175.0,1611470884.461
2137094.0,1611470884.501
2144196.0,1611470884.299
2137102.0,1611470884.54
2136981.0,1611470884.582
2139347.0,1611470884.379
2136782.0,1611470884.621
2137426.0,1611470884.701
2138306.0,1611470884.739
2139487.0,1611470884.78
2140065.0,1611470884.821
2137180.0,1611470884.659
2138998.0,1611470884.86
2136637.0,1611470884.901
2134733.0,1611470884.942
2133921.0,1611470884.981
2133491.0,1611470885.019
2134108.0,1611470885.06
2134607.0,1611470885.1
2134907.0,1611470885.14
2135248.0,1611470885.181
2135524.0,1611470885.22
2136485.0,1611470885.261
2137516.0,1611470885.303
2140156.0,1611470885.38
2138880.0,1611470885.34
2141797.0,1611470885.422
2143527.0,1611470885.461
2145065.0,1611470885.502
2146737.0,1611470885.54
2150243.0,1611470885.62
2148485.0,1611470885.58
2154193.0,1611470885.701
2156046.0,1611470885.741
2155937.0,1611470885.782
2153778.0,1611470885.821
2151574.0,1611470885.861
2150746.0,1611470885.901
2150439.0,1611470885.94
2152359.0,1611470885.661
2150644.0,1611470885.98
2150705.0,1611470886.021
2151270.0,1611470886.061
2151757.0,1611470886.102
2152023.0,1611470886.142
2153006.0,1611470886.179
2153871.0,1611470886.22
2154969.0,1611470886.261
2156462.0,1611470886.3
2157966.0,1611470886.34
2161179.0,1611470886.42
2159463.0,1611470886.381
2162661.0,1611470886.461
2162840.0,1611470886.503
2160926.0,1611470886.54
2158917.0,1611470886.58
2158265.0,1611470886.622
2157611.0,1611470886.661
2157353.0,1611470886.702
2157820.0,1611470886.742
2158231.0,1611470886.782
2158911.0,1611470886.822
2159285.0,1611470886.861
2160008.0,1611470886.9
2160869.0,1611470886.939
2162103.0,1611470886.978
2163684.0,1611470887.017
2165174.0,1611470887.056
2166639.0,1611470887.095
2168359.0,1611470887.134
2167833.0,1611470887.212
2165669.0,1611470887.251
2164385.0,1611470887.29
2169110.0,1611470887.173
2163692.0,1611470887.329
2163419.0,1611470887.407
2163280.0,1611470887.368
2164230.0,1611470887.446
2164709.0,1611470887.485
2164925.0,1611470887.524
2165538.0,1611470887.563
2166522.0,1611470887.602
