bvp,time
0.36,1644481153.3125
0.66,1644481153.328125
1.01,1644481153.34375
1.37,1644481153.359375
1.72,1644481153.375
2.06,1644481153.390625
2.4,1644481153.40625
2.79,1644481153.421875
3.24,1644481153.4375
3.8,1644481153.453125
4.42,1644481153.46875
5.06,1644481153.484375
5.66,1644481153.5
6.2,1644481153.515625
6.68,1644481153.53125
7.15,1644481153.546875
7.68,1644481153.5625
8.31,1644481153.578125
9.14,1644481153.59375
10.09,1644481153.609375
11.04,1644481153.625
11.88,1644481153.640625
12.56,1644481153.65625
13.14,1644481153.671875
13.76,1644481153.6875
14.65,1644481153.703125
15.96,1644481153.71875
17.91,1644481153.734375
20.32,1644481153.75
22.9,1644481153.765625
25.38,1644481153.78125
27.58,1644481153.796875
29.57,1644481153.8125
31.68,1644481153.828125
34.32,1644481153.84375
37.81,1644481153.859375
42.54,1644481153.875
48.15,1644481153.890625
54.1,1644481153.90625
59.83,1644481153.921875
64.97,1644481153.9375
69.58,1644481153.953125
74.14,1644481153.96875
79.34,1644481153.984375
85.71,1644481154.0
93.76,1644481154.015625
103.0,1644481154.03125
112.62,1644481154.046875
121.73,1644481154.0625
129.77,1644481154.078125
136.75,1644481154.09375
143.3,1644481154.109375
150.75,1644481154.125
157.77,1644481154.140625
166.64,1644481154.15625
177.95,1644481154.171875
191.79,1644481154.1875
206.97,1644481154.203125
220.57,1644481154.21875
228.25,1644481154.234375
225.36,1644481154.25
208.53,1644481154.265625
176.87,1644481154.28125
132.76,1644481154.296875
80.05,1644481154.3125
23.07,1644481154.328125
-34.94,1644481154.34375
-92.44,1644481154.359375
-149.16,1644481154.375
-205.23,1644481154.390625
-260.37,1644481154.40625
-313.74,1644481154.421875
-363.87,1644481154.4375
-409.83,1644481154.453125
-450.91,1644481154.46875
-486.5,1644481154.484375
-515.74,1644481154.5
-537.23,1644481154.515625
-549.22,1644481154.53125
-549.96,1644481154.546875
-538.37,1644481154.5625
-514.21,1644481154.578125
-478.67,1644481154.59375
-433.88,1644481154.609375
-382.45,1644481154.625
-327.02,1644481154.640625
-269.84,1644481154.65625
-212.63,1644481154.671875
-156.66,1644481154.6875
-102.95,1644481154.703125
-52.37,1644481154.71875
-5.9,1644481154.734375
35.58,1644481154.75
71.43,1644481154.765625
101.35,1644481154.78125
125.5,1644481154.796875
144.38,1644481154.8125
158.69,1644481154.828125
169.15,1644481154.84375
176.37,1644481154.859375
180.75,1644481154.875
182.57,1644481154.890625
182.07,1644481154.90625
179.51,1644481154.921875
175.23,1644481154.9375
169.65,1644481154.953125
163.18,1644481154.96875
156.15,1644481154.984375
148.81,1644481155.0
141.3,1644481155.015625
133.69,1644481155.03125
126.02,1644481155.046875
118.33,1644481155.0625
110.69,1644481155.078125
103.16,1644481155.09375
95.8,1644481155.109375
88.68,1644481155.125
81.83,1644481155.140625
75.25,1644481155.15625
68.95,1644481155.171875
62.95,1644481155.1875
57.25,1644481155.203125
51.86,1644481155.21875
46.78,1644481155.234375
42.03,1644481155.25
37.59,1644481155.265625
33.45,1644481155.28125
29.61,1644481155.296875
26.07,1644481155.3125
22.81,1644481155.328125
19.83,1644481155.34375
17.11,1644481155.359375
14.67,1644481155.375
12.48,1644481155.390625
10.54,1644481155.40625
8.83,1644481155.421875
7.35,1644481155.4375
6.07,1644481155.453125
4.97,1644481155.46875
4.05,1644481155.484375
3.27,1644481155.5
2.62,1644481155.515625
2.09,1644481155.53125
1.65,1644481155.546875
1.3,1644481155.5625
1.01,1644481155.578125
0.79,1644481155.59375
0.61,1644481155.609375
0.48,1644481155.625
0.37,1644481155.640625
0.29,1644481155.65625
0.24,1644481155.671875
0.2,1644481155.6875
0.18,1644481155.703125
0.17,1644481155.71875
0.17,1644481155.734375
0.18,1644481155.75
0.2,1644481155.765625
0.23,1644481155.78125
0.26,1644481155.796875
0.3,1644481155.8125
0.34,1644481155.828125
0.38,1644481155.84375
0.42,1644481155.859375
0.47,1644481155.875
0.52,1644481155.890625
0.57,1644481155.90625
0.62,1644481155.921875
0.67,1644481155.9375
0.73,1644481155.953125
0.8,1644481155.96875
0.86,1644481155.984375
0.94,1644481156.0
1.02,1644481156.015625
1.1,1644481156.03125
1.2,1644481156.046875
1.32,1644481156.0625
1.44,1644481156.078125
1.58,1644481156.09375
1.73,1644481156.109375
1.91,1644481156.125
2.1,1644481156.140625
2.32,1644481156.15625
2.56,1644481156.171875
2.82,1644481156.1875
3.12,1644481156.203125
3.44,1644481156.21875
3.79,1644481156.234375
4.18,1644481156.25
4.6,1644481156.265625
5.05,1644481156.28125
5.55,1644481156.296875
6.08,1644481156.3125
6.65,1644481156.328125
7.27,1644481156.34375
7.93,1644481156.359375
8.63,1644481156.375
9.37,1644481156.390625
10.16,1644481156.40625
11.0,1644481156.421875
11.88,1644481156.4375
12.81,1644481156.453125
13.79,1644481156.46875
14.83,1644481156.484375
15.93,1644481156.5
17.1,1644481156.515625
18.32,1644481156.53125
19.6,1644481156.546875
20.88,1644481156.5625
22.14,1644481156.578125
23.29,1644481156.59375
24.25,1644481156.609375
24.89,1644481156.625
25.09,1644481156.640625
24.75,1644481156.65625
23.75,1644481156.671875
22.06,1644481156.6875
19.64,1644481156.703125
16.56,1644481156.71875
12.85,1644481156.734375
8.7,1644481156.75
4.27,1644481156.765625
-0.22,1644481156.78125
-4.59,1644481156.796875
-8.63,1644481156.8125
-12.16,1644481156.828125
-15.08,1644481156.84375
-17.29,1644481156.859375
-18.75,1644481156.875
-19.46,1644481156.890625
-19.53,1644481156.90625
-19.05,1644481156.921875
-18.16,1644481156.9375
-16.97,1644481156.953125
-15.6,1644481156.96875
-14.11,1644481156.984375
-12.53,1644481157.0
-10.84,1644481157.015625
-9.05,1644481157.03125
-7.18,1644481157.046875
-5.31,1644481157.0625
-3.49,1644481157.078125
-1.75,1644481157.09375
-0.1,1644481157.109375
1.48,1644481157.125
3.08,1644481157.140625
4.79,1644481157.15625
6.73,1644481157.171875
8.8,1644481157.1875
10.92,1644481157.203125
13.0,1644481157.21875
14.99,1644481157.234375
16.87,1644481157.25
18.72,1644481157.265625
20.71,1644481157.28125
23.06,1644481157.296875
25.95,1644481157.3125
29.18,1644481157.328125
32.49,1644481157.34375
35.6,1644481157.359375
38.29,1644481157.375
40.51,1644481157.390625
42.39,1644481157.40625
44.3,1644481157.421875
46.67,1644481157.4375
49.93,1644481157.453125
53.71,1644481157.46875
57.58,1644481157.484375
60.98,1644481157.5
63.44,1644481157.515625
64.8,1644481157.53125
65.25,1644481157.546875
65.39,1644481157.5625
65.92,1644481157.578125
67.44,1644481157.59375
69.39,1644481157.609375
70.98,1644481157.625
71.11,1644481157.640625
68.74,1644481157.65625
63.17,1644481157.671875
54.08,1644481157.6875
41.24,1644481157.703125
23.95,1644481157.71875
5.62,1644481157.734375
-13.01,1644481157.75
-31.97,1644481157.765625
-51.83,1644481157.78125
-73.45,1644481157.796875
-97.78,1644481157.8125
-125.58,1644481157.828125
-156.89,1644481157.84375
-190.36,1644481157.859375
-222.87,1644481157.875
-250.46,1644481157.890625
-268.62,1644481157.90625
-273.92,1644481157.921875
-265.47,1644481157.9375
-245.31,1644481157.953125
-217.7,1644481157.96875
-187.46,1644481157.984375
-158.37,1644481158.0
-132.2,1644481158.015625
-109.57,1644481158.03125
-90.01,1644481158.046875
-73.06,1644481158.0625
-58.65,1644481158.078125
-46.95,1644481158.09375
-37.79,1644481158.109375
-30.43,1644481158.125
-23.66,1644481158.140625
-16.29,1644481158.15625
-8.06,1644481158.171875
0.61,1644481158.1875
8.66,1644481158.203125
14.96,1644481158.21875
18.82,1644481158.234375
20.38,1644481158.25
20.48,1644481158.265625
20.32,1644481158.28125
20.95,1644481158.296875
22.65,1644481158.3125
25.04,1644481158.328125
27.28,1644481158.34375
28.47,1644481158.359375
28.13,1644481158.375
26.43,1644481158.390625
24.11,1644481158.40625
22.1,1644481158.421875
21.15,1644481158.4375
21.36,1644481158.453125
22.28,1644481158.46875
23.15,1644481158.484375
23.25,1644481158.5
22.18,1644481158.515625
19.81,1644481158.53125
16.23,1644481158.546875
11.59,1644481158.5625
6.17,1644481158.578125
0.45,1644481158.59375
-4.78,1644481158.609375
-8.57,1644481158.625
-10.13,1644481158.640625
-9.05,1644481158.65625
-5.6,1644481158.671875
-0.52,1644481158.6875
5.17,1644481158.703125
10.59,1644481158.71875
15.15,1644481158.734375
18.66,1644481158.75
21.16,1644481158.765625
22.84,1644481158.78125
23.85,1644481158.796875
24.33,1644481158.8125
24.37,1644481158.828125
24.07,1644481158.84375
23.59,1644481158.859375
23.21,1644481158.875
23.22,1644481158.890625
23.92,1644481158.90625
25.38,1644481158.921875
27.45,1644481158.9375
29.7,1644481158.953125
31.63,1644481158.96875
32.82,1644481158.984375
33.12,1644481159.0
32.63,1644481159.015625
31.67,1644481159.03125
30.58,1644481159.046875
29.6,1644481159.0625
28.79,1644481159.078125
27.99,1644481159.09375
26.9,1644481159.109375
25.21,1644481159.125
22.75,1644481159.140625
19.63,1644481159.15625
16.23,1644481159.171875
13.08,1644481159.1875
10.61,1644481159.203125
9.0,1644481159.21875
8.03,1644481159.234375
7.25,1644481159.25
6.21,1644481159.265625
4.7,1644481159.28125
2.83,1644481159.296875
0.88,1644481159.3125
-0.94,1644481159.328125
-2.62,1644481159.34375
-4.39,1644481159.359375
-6.55,1644481159.375
-9.28,1644481159.390625
-12.53,1644481159.40625
-16.03,1644481159.421875
-19.46,1644481159.4375
-22.55,1644481159.453125
-25.13,1644481159.46875
-27.03,1644481159.484375
-28.04,1644481159.5
-27.91,1644481159.515625
-26.45,1644481159.53125
-23.74,1644481159.546875
-20.14,1644481159.5625
-16.21,1644481159.578125
-12.43,1644481159.59375
-8.97,1644481159.609375
-5.71,1644481159.625
-2.35,1644481159.640625
1.3,1644481159.65625
5.14,1644481159.671875
8.79,1644481159.6875
11.83,1644481159.703125
14.01,1644481159.71875
15.39,1644481159.734375
16.27,1644481159.75
16.99,1644481159.765625
17.76,1644481159.78125
18.64,1644481159.796875
19.51,1644481159.8125
20.31,1644481159.828125
21.01,1644481159.84375
21.63,1644481159.859375
22.15,1644481159.875
22.48,1644481159.890625
22.52,1644481159.90625
22.23,1644481159.921875
21.67,1644481159.9375
21.02,1644481159.953125
20.4,1644481159.96875
19.84,1644481159.984375
19.26,1644481160.0
18.44,1644481160.015625
17.22,1644481160.03125
15.57,1644481160.046875
13.59,1644481160.0625
11.43,1644481160.078125
9.28,1644481160.09375
7.3,1644481160.109375
5.61,1644481160.125
4.33,1644481160.140625
3.47,1644481160.15625
2.95,1644481160.171875
2.52,1644481160.1875
1.83,1644481160.203125
0.53,1644481160.21875
-1.61,1644481160.234375
-4.52,1644481160.25
-7.9,1644481160.265625
-11.29,1644481160.28125
-14.29,1644481160.296875
-16.74,1644481160.3125
-18.79,1644481160.328125
-20.79,1644481160.34375
-23.08,1644481160.359375
-25.75,1644481160.375
-28.51,1644481160.390625
-30.78,1644481160.40625
-31.94,1644481160.421875
-31.61,1644481160.4375
-29.82,1644481160.453125
-26.98,1644481160.46875
-23.68,1644481160.484375
-20.32,1644481160.5
-16.95,1644481160.515625
-13.32,1644481160.53125
-9.18,1644481160.546875
-4.45,1644481160.5625
0.56,1644481160.578125
5.37,1644481160.59375
9.5,1644481160.609375
12.83,1644481160.625
15.46,1644481160.640625
17.65,1644481160.65625
19.54,1644481160.671875
21.01,1644481160.6875
21.81,1644481160.703125
21.8,1644481160.71875
21.21,1644481160.734375
20.59,1644481160.75
20.55,1644481160.765625
21.45,1644481160.78125
23.2,1644481160.796875
25.3,1644481160.8125
27.1,1644481160.828125
28.15,1644481160.84375
28.33,1644481160.859375
27.78,1644481160.875
26.69,1644481160.890625
25.15,1644481160.90625
23.17,1644481160.921875
20.78,1644481160.9375
18.19,1644481160.953125
15.79,1644481160.96875
13.96,1644481160.984375
12.92,1644481161.0
12.61,1644481161.015625
12.69,1644481161.03125
12.78,1644481161.046875
12.49,1644481161.0625
11.59,1644481161.078125
10.01,1644481161.09375
7.83,1644481161.109375
5.26,1644481161.125
2.64,1644481161.140625
0.33,1644481161.15625
-1.39,1644481161.171875
-2.45,1644481161.1875
-3.08,1644481161.203125
-3.71,1644481161.21875
-4.77,1644481161.234375
-6.55,1644481161.25
-9.01,1644481161.265625
-11.91,1644481161.28125
-14.88,1644481161.296875
-17.64,1644481161.3125
-20.07,1644481161.328125
-22.27,1644481161.34375
-24.47,1644481161.359375
-26.94,1644481161.375
-29.87,1644481161.390625
-33.19,1644481161.40625
-36.6,1644481161.421875
-39.51,1644481161.4375
-41.17,1644481161.453125
-41.0,1644481161.46875
-38.7,1644481161.484375
-34.46,1644481161.5
-28.91,1644481161.515625
-22.86,1644481161.53125
-17.06,1644481161.546875
-11.88,1644481161.5625
-7.3,1644481161.578125
-2.99,1644481161.59375
1.38,1644481161.609375
5.9,1644481161.625
10.34,1644481161.640625
14.22,1644481161.65625
17.07,1644481161.671875
18.75,1644481161.6875
19.54,1644481161.703125
20.03,1644481161.71875
20.84,1644481161.734375
22.34,1644481161.75
24.39,1644481161.765625
26.52,1644481161.78125
28.17,1644481161.796875
28.98,1644481161.8125
29.02,1644481161.828125
28.71,1644481161.84375
28.54,1644481161.859375
28.83,1644481161.875
29.54,1644481161.890625
30.45,1644481161.90625
31.29,1644481161.921875
31.97,1644481161.9375
32.56,1644481161.953125
33.19,1644481161.96875
33.93,1644481161.984375
34.67,1644481162.0
35.27,1644481162.015625
35.6,1644481162.03125
35.6,1644481162.046875
35.25,1644481162.0625
34.5,1644481162.078125
33.16,1644481162.09375
30.99,1644481162.109375
27.81,1644481162.125
23.54,1644481162.140625
18.32,1644481162.15625
12.47,1644481162.171875
6.42,1644481162.1875
0.71,1644481162.203125
-4.17,1644481162.21875
-7.92,1644481162.234375
-10.55,1644481162.25
-12.42,1644481162.265625
-14.2,1644481162.28125
-16.51,1644481162.296875
-19.78,1644481162.3125
-24.08,1644481162.328125
-29.14,1644481162.34375
-34.53,1644481162.359375
-39.79,1644481162.375
-44.47,1644481162.390625
-48.14,1644481162.40625
-50.32,1644481162.421875
-50.54,1644481162.4375
-48.56,1644481162.453125
-44.49,1644481162.46875
-38.8,1644481162.484375
-32.21,1644481162.5
-25.39,1644481162.515625
-18.81,1644481162.53125
-12.63,1644481162.546875
-6.79,1644481162.5625
-1.15,1644481162.578125
4.35,1644481162.59375
9.65,1644481162.609375
14.53,1644481162.625
18.63,1644481162.640625
21.54,1644481162.65625
22.87,1644481162.671875
22.46,1644481162.6875
20.49,1644481162.703125
17.59,1644481162.71875
14.61,1644481162.734375
12.36,1644481162.75
11.29,1644481162.765625
11.33,1644481162.78125
11.91,1644481162.796875
12.32,1644481162.8125
11.98,1644481162.828125
10.67,1644481162.84375
8.51,1644481162.859375
5.79,1644481162.875
2.88,1644481162.890625
0.11,1644481162.90625
-2.25,1644481162.921875
-4.02,1644481162.9375
-5.16,1644481162.953125
-5.83,1644481162.96875
-6.36,1644481162.984375
-7.18,1644481163.0
-8.54,1644481163.015625
-10.44,1644481163.03125
-12.59,1644481163.046875
-14.56,1644481163.0625
-16.05,1644481163.078125
-16.99,1644481163.09375
-17.61,1644481163.109375
-18.37,1644481163.125
-19.71,1644481163.140625
-21.91,1644481163.15625
-25.03,1644481163.171875
-28.75,1644481163.1875
-32.49,1644481163.203125
-35.53,1644481163.21875
-37.2,1644481163.234375
-37.08,1644481163.25
-35.1,1644481163.265625
-31.5,1644481163.28125
-26.66,1644481163.296875
-20.94,1644481163.3125
-14.58,1644481163.328125
-7.77,1644481163.34375
-0.66,1644481163.359375
6.44,1644481163.375
13.15,1644481163.390625
19.1,1644481163.40625
24.08,1644481163.421875
28.1,1644481163.4375
31.35,1644481163.453125
34.03,1644481163.46875
36.2,1644481163.484375
37.76,1644481163.5
38.47,1644481163.515625
38.22,1644481163.53125
37.11,1644481163.546875
35.56,1644481163.5625
34.21,1644481163.578125
33.71,1644481163.59375
34.55,1644481163.609375
36.84,1644481163.625
40.25,1644481163.640625
44.07,1644481163.65625
47.4,1644481163.671875
49.42,1644481163.6875
49.55,1644481163.703125
47.65,1644481163.71875
43.88,1644481163.734375
38.67,1644481163.75
32.47,1644481163.765625
25.71,1644481163.78125
18.82,1644481163.796875
12.2,1644481163.8125
6.25,1644481163.828125
1.28,1644481163.84375
-2.59,1644481163.859375
-5.49,1644481163.875
-7.78,1644481163.890625
-9.83,1644481163.90625
-11.91,1644481163.921875
-14.07,1644481163.9375
-16.25,1644481163.953125
-18.33,1644481163.96875
-20.33,1644481163.984375
-22.36,1644481164.0
-24.56,1644481164.015625
-27.1,1644481164.03125
-30.06,1644481164.046875
-33.51,1644481164.0625
-37.5,1644481164.078125
-41.97,1644481164.09375
-46.65,1644481164.109375
-50.99,1644481164.125
-54.2,1644481164.140625
-55.5,1644481164.15625
-54.44,1644481164.171875
-51.05,1644481164.1875
-45.87,1644481164.203125
-39.64,1644481164.21875
-33.01,1644481164.234375
-26.29,1644481164.25
-19.41,1644481164.265625
-12.27,1644481164.28125
-4.88,1644481164.296875
2.32,1644481164.3125
8.69,1644481164.328125
13.65,1644481164.34375
16.95,1644481164.359375
18.82,1644481164.375
19.84,1644481164.390625
20.64,1644481164.40625
21.65,1644481164.421875
23.03,1644481164.4375
24.81,1644481164.453125
27.03,1644481164.46875
29.8,1644481164.484375
33.17,1644481164.5
36.91,1644481164.515625
40.35,1644481164.53125
42.53,1644481164.546875
42.58,1644481164.5625
40.18,1644481164.578125
35.71,1644481164.59375
30.2,1644481164.609375
24.83,1644481164.625
20.4,1644481164.640625
17.11,1644481164.65625
14.62,1644481164.671875
12.41,1644481164.6875
10.18,1644481164.703125
8.07,1644481164.71875
6.5,1644481164.734375
6.0,1644481164.75
6.77,1644481164.765625
8.58,1644481164.78125
10.83,1644481164.796875
12.81,1644481164.8125
13.99,1644481164.828125
14.22,1644481164.84375
13.76,1644481164.859375
13.09,1644481164.875
12.73,1644481164.890625
12.89,1644481164.90625
13.46,1644481164.921875
13.97,1644481164.9375
13.88,1644481164.953125
12.84,1644481164.96875
10.84,1644481164.984375
8.13,1644481165.0
5.1,1644481165.015625
2.0,1644481165.03125
-1.14,1644481165.046875
-4.51,1644481165.0625
-8.4,1644481165.078125
-13.04,1644481165.09375
-18.5,1644481165.109375
-24.68,1644481165.125
-31.31,1644481165.140625
-37.95,1644481165.15625
-44.08,1644481165.171875
-49.08,1644481165.1875
-52.39,1644481165.203125
-53.58,1644481165.21875
-52.46,1644481165.234375
-49.18,1644481165.25
-44.15,1644481165.265625
-37.99,1644481165.28125
-31.4,1644481165.296875
-25.02,1644481165.3125
-19.3,1644481165.328125
-14.46,1644481165.34375
-10.44,1644481165.359375
-6.97,1644481165.375
-3.72,1644481165.390625
-0.43,1644481165.40625
3.0,1644481165.421875
6.49,1644481165.4375
9.81,1644481165.453125
12.75,1644481165.46875
15.15,1644481165.484375
16.99,1644481165.5
18.33,1644481165.515625
19.26,1644481165.53125
19.9,1644481165.546875
20.36,1644481165.5625
20.74,1644481165.578125
21.21,1644481165.59375
21.88,1644481165.609375
22.83,1644481165.625
24.01,1644481165.640625
25.17,1644481165.65625
25.95,1644481165.671875
26.02,1644481165.6875
25.18,1644481165.703125
23.56,1644481165.71875
21.51,1644481165.734375
19.54,1644481165.75
18.04,1644481165.765625
17.17,1644481165.78125
16.76,1644481165.796875
16.5,1644481165.8125
16.05,1644481165.828125
15.33,1644481165.84375
14.46,1644481165.859375
13.65,1644481165.875
13.03,1644481165.890625
12.58,1644481165.90625
12.09,1644481165.921875
11.38,1644481165.9375
10.39,1644481165.953125
9.18,1644481165.96875
7.93,1644481165.984375
6.71,1644481166.0
5.49,1644481166.015625
4.09,1644481166.03125
2.38,1644481166.046875
0.28,1644481166.0625
-2.17,1644481166.078125
-4.81,1644481166.09375
-7.48,1644481166.109375
-10.01,1644481166.125
-12.32,1644481166.140625
-14.41,1644481166.15625
-16.42,1644481166.171875
-18.57,1644481166.1875
-21.15,1644481166.203125
-24.29,1644481166.21875
-27.97,1644481166.234375
-31.83,1644481166.25
-35.27,1644481166.265625
-37.61,1644481166.28125
-38.27,1644481166.296875
-37.03,1644481166.3125
-34.03,1644481166.328125
-29.79,1644481166.34375
-24.99,1644481166.359375
-20.28,1644481166.375
-16.11,1644481166.390625
-12.58,1644481166.40625
-9.58,1644481166.421875
-6.85,1644481166.4375
-4.18,1644481166.453125
-1.51,1644481166.46875
1.09,1644481166.484375
3.48,1644481166.5
5.54,1644481166.515625
7.19,1644481166.53125
8.41,1644481166.546875
9.25,1644481166.5625
9.77,1644481166.578125
10.03,1644481166.59375
10.1,1644481166.609375
10.04,1644481166.625
9.88,1644481166.640625
9.67,1644481166.65625
9.46,1644481166.671875
9.27,1644481166.6875
9.1,1644481166.703125
8.87,1644481166.71875
8.37,1644481166.734375
7.4,1644481166.75
5.81,1644481166.765625
3.71,1644481166.78125
1.46,1644481166.796875
-0.45,1644481166.8125
-1.6,1644481166.828125
-1.88,1644481166.84375
-1.53,1644481166.859375
-0.95,1644481166.875
-0.52,1644481166.890625
-0.36,1644481166.90625
-0.36,1644481166.921875
-0.3,1644481166.9375
-0.13,1644481166.953125
-0.03,1644481166.96875
-0.35,1644481166.984375
-1.44,1644481167.0
-3.36,1644481167.015625
-5.89,1644481167.03125
-8.6,1644481167.046875
-11.06,1644481167.0625
-13.09,1644481167.078125
-14.79,1644481167.09375
-16.41,1644481167.109375
-18.23,1644481167.125
-20.35,1644481167.140625
-22.72,1644481167.15625
-25.1,1644481167.171875
-27.24,1644481167.1875
-28.85,1644481167.203125
-29.7,1644481167.21875
-29.59,1644481167.234375
-28.33,1644481167.25
-25.84,1644481167.265625
-22.11,1644481167.28125
-17.33,1644481167.296875
-11.84,1644481167.3125
-6.07,1644481167.328125
-0.44,1644481167.34375
4.71,1644481167.359375
9.19,1644481167.375
12.88,1644481167.390625
15.67,1644481167.40625
17.49,1644481167.421875
18.31,1644481167.4375
18.25,1644481167.453125
17.62,1644481167.46875
16.83,1644481167.484375
16.25,1644481167.5
16.14,1644481167.515625
16.48,1644481167.53125
17.08,1644481167.546875
17.68,1644481167.5625
18.17,1644481167.578125
18.48,1644481167.59375
18.68,1644481167.609375
18.8,1644481167.625
18.77,1644481167.640625
18.44,1644481167.65625
17.7,1644481167.671875
16.52,1644481167.6875
15.07,1644481167.703125
13.64,1644481167.71875
12.48,1644481167.734375
11.66,1644481167.75
11.05,1644481167.765625
10.32,1644481167.78125
9.15,1644481167.796875
7.36,1644481167.8125
5.08,1644481167.828125
2.63,1644481167.84375
0.41,1644481167.859375
-1.22,1644481167.875
-2.18,1644481167.890625
-2.59,1644481167.90625
-2.81,1644481167.921875
-3.22,1644481167.9375
-4.14,1644481167.953125
-5.66,1644481167.96875
-7.69,1644481167.984375
-10.0,1644481168.0
-12.35,1644481168.015625
-14.63,1644481168.03125
-16.91,1644481168.046875
-19.38,1644481168.0625
-22.32,1644481168.078125
-25.85,1644481168.09375
-29.91,1644481168.109375
-34.14,1644481168.125
-38.01,1644481168.140625
-40.83,1644481168.15625
-42.02,1644481168.171875
-41.2,1644481168.1875
-38.36,1644481168.203125
-33.8,1644481168.21875
-28.12,1644481168.234375
-22.0,1644481168.25
-16.03,1644481168.265625
-10.66,1644481168.28125
-6.09,1644481168.296875
-2.41,1644481168.3125
0.44,1644481168.328125
2.68,1644481168.34375
4.63,1644481168.359375
6.76,1644481168.375
9.46,1644481168.390625
12.93,1644481168.40625
17.04,1644481168.421875
21.31,1644481168.4375
25.14,1644481168.453125
28.1,1644481168.46875
30.02,1644481168.484375
31.11,1644481168.5
31.75,1644481168.515625
32.29,1644481168.53125
32.92,1644481168.546875
33.6,1644481168.5625
34.17,1644481168.578125
34.44,1644481168.59375
34.26,1644481168.609375
33.61,1644481168.625
32.51,1644481168.640625
31.08,1644481168.65625
29.43,1644481168.671875
27.66,1644481168.6875
25.85,1644481168.703125
24.02,1644481168.71875
22.2,1644481168.734375
20.46,1644481168.75
18.9,1644481168.765625
17.65,1644481168.78125
16.81,1644481168.796875
16.31,1644481168.8125
16.0,1644481168.828125
15.65,1644481168.84375
15.07,1644481168.859375
14.21,1644481168.875
13.12,1644481168.890625
11.94,1644481168.90625
10.81,1644481168.921875
9.91,1644481168.9375
9.35,1644481168.953125
9.24,1644481168.96875
9.59,1644481168.984375
10.31,1644481169.0
11.24,1644481169.015625
12.1,1644481169.03125
12.59,1644481169.046875
12.42,1644481169.0625
11.46,1644481169.078125
9.67,1644481169.09375
7.18,1644481169.109375
4.28,1644481169.125
1.36,1644481169.140625
-1.06,1644481169.15625
-2.37,1644481169.171875
-1.96,1644481169.1875
0.7,1644481169.203125
5.91,1644481169.21875
13.64,1644481169.234375
23.48,1644481169.25
34.67,1644481169.265625
46.08,1644481169.28125
56.25,1644481169.296875
63.53,1644481169.3125
66.29,1644481169.328125
63.26,1644481169.34375
53.93,1644481169.359375
38.78,1644481169.375
19.19,1644481169.390625
-2.95,1644481169.40625
-25.79,1644481169.421875
-47.86,1644481169.4375
-68.13,1644481169.453125
-85.75,1644481169.46875
-99.68,1644481169.484375
-108.7,1644481169.5
-111.73,1644481169.515625
-108.43,1644481169.53125
-99.54,1644481169.546875
-86.93,1644481169.5625
-73.01,1644481169.578125
-60.04,1644481169.59375
-49.43,1644481169.609375
-41.54,1644481169.625
-35.87,1644481169.640625
-31.57,1644481169.65625
-27.86,1644481169.671875
-24.42,1644481169.6875
-21.24,1644481169.703125
-18.52,1644481169.71875
-16.4,1644481169.734375
-14.93,1644481169.75
-14.06,1644481169.765625
-13.75,1644481169.78125
-14.05,1644481169.796875
-14.98,1644481169.8125
-16.31,1644481169.828125
-17.52,1644481169.84375
-17.82,1644481169.859375
-16.51,1644481169.875
-13.29,1644481169.890625
-8.51,1644481169.90625
-3.15,1644481169.921875
1.59,1644481169.9375
4.76,1644481169.953125
5.96,1644481169.96875
5.34,1644481169.984375
3.42,1644481170.0
0.75,1644481170.015625
-2.29,1644481170.03125
-5.52,1644481170.046875
-8.78,1644481170.0625
-11.89,1644481170.078125
-14.69,1644481170.09375
-17.19,1644481170.109375
-19.66,1644481170.125
-22.52,1644481170.140625
-26.14,1644481170.15625
-30.43,1644481170.171875
-34.79,1644481170.1875
-38.19,1644481170.203125
-39.63,1644481170.21875
-38.58,1644481170.234375
-35.19,1644481170.25
-30.27,1644481170.265625
-24.8,1644481170.28125
-19.59,1644481170.296875
-14.96,1644481170.3125
-10.72,1644481170.328125
-6.42,1644481170.34375
-1.61,1644481170.359375
3.88,1644481170.375
9.93,1644481170.390625
16.12,1644481170.40625
21.93,1644481170.421875
26.9,1644481170.4375
30.75,1644481170.453125
33.48,1644481170.46875
35.28,1644481170.484375
36.49,1644481170.5
37.41,1644481170.515625
38.2,1644481170.53125
38.88,1644481170.546875
39.33,1644481170.5625
39.41,1644481170.578125
39.02,1644481170.59375
38.14,1644481170.609375
36.76,1644481170.625
34.86,1644481170.640625
32.43,1644481170.65625
29.49,1644481170.671875
26.17,1644481170.6875
22.76,1644481170.703125
19.68,1644481170.71875
17.35,1644481170.734375
16.03,1644481170.75
15.7,1644481170.765625
16.01,1644481170.78125
16.39,1644481170.796875
16.28,1644481170.8125
15.29,1644481170.828125
13.41,1644481170.84375
10.84,1644481170.859375
7.92,1644481170.875
4.93,1644481170.890625
1.96,1644481170.90625
-0.95,1644481170.921875
-3.8,1644481170.9375
-6.51,1644481170.953125
-8.9,1644481170.96875
-10.88,1644481170.984375
-12.55,1644481171.0
-14.15,1644481171.015625
-15.96,1644481171.03125
-18.06,1644481171.046875
-20.28,1644481171.0625
-22.13,1644481171.078125
-23.23,1644481171.09375
-23.43,1644481171.109375
-23.08,1644481171.125
-22.83,1644481171.140625
-23.32,1644481171.15625
-24.86,1644481171.171875
-27.22,1644481171.1875
-29.79,1644481171.203125
-31.91,1644481171.21875
-33.2,1644481171.234375
-33.68,1644481171.25
-33.5,1644481171.265625
-32.79,1644481171.28125
-31.33,1644481171.296875
-28.73,1644481171.3125
-24.69,1644481171.328125
-19.26,1644481171.34375
-13.07,1644481171.359375
-7.06,1644481171.375
-2.12,1644481171.390625
1.29,1644481171.40625
3.3,1644481171.421875
4.51,1644481171.4375
5.63,1644481171.453125
7.19,1644481171.46875
9.31,1644481171.484375
11.75,1644481171.5
14.1,1644481171.515625
16.07,1644481171.53125
17.58,1644481171.546875
18.83,1644481171.5625
20.12,1644481171.578125
21.7,1644481171.59375
23.6,1644481171.609375
25.6,1644481171.625
27.31,1644481171.640625
28.34,1644481171.65625
28.47,1644481171.671875
27.73,1644481171.6875
26.4,1644481171.703125
24.87,1644481171.71875
23.55,1644481171.734375
22.68,1644481171.75
22.26,1644481171.765625
22.13,1644481171.78125
21.98,1644481171.796875
21.58,1644481171.8125
20.86,1644481171.828125
19.89,1644481171.84375
18.82,1644481171.859375
17.77,1644481171.875
16.79,1644481171.890625
15.84,1644481171.90625
14.95,1644481171.921875
14.19,1644481171.9375
13.67,1644481171.953125
13.34,1644481171.96875
12.98,1644481171.984375
12.18,1644481172.0
10.58,1644481172.015625
8.16,1644481172.03125
5.28,1644481172.046875
2.55,1644481172.0625
0.48,1644481172.078125
-0.87,1644481172.09375
-1.95,1644481172.109375
-3.48,1644481172.125
-6.05,1644481172.140625
-9.75,1644481172.15625
-14.06,1644481172.171875
-18.07,1644481172.1875
-20.87,1644481172.203125
-21.85,1644481172.21875
-20.88,1644481172.234375
-18.26,1644481172.25
-14.56,1644481172.265625
-10.44,1644481172.28125
-6.52,1644481172.296875
-3.25,1644481172.3125
-0.88,1644481172.328125
0.6,1644481172.34375
1.47,1644481172.359375
2.1,1644481172.375
2.84,1644481172.390625
3.89,1644481172.40625
5.28,1644481172.421875
6.96,1644481172.4375
8.81,1644481172.453125
10.75,1644481172.46875
12.69,1644481172.484375
14.54,1644481172.5
16.16,1644481172.515625
17.41,1644481172.53125
18.19,1644481172.546875
18.55,1644481172.5625
18.59,1644481172.578125
18.49,1644481172.59375
18.37,1644481172.609375
18.29,1644481172.625
18.22,1644481172.640625
18.13,1644481172.65625
17.93,1644481172.671875
17.57,1644481172.6875
16.95,1644481172.703125
15.95,1644481172.71875
14.51,1644481172.734375
12.71,1644481172.75
10.75,1644481172.765625
8.92,1644481172.78125
7.47,1644481172.796875
6.47,1644481172.8125
5.8,1644481172.828125
5.21,1644481172.84375
4.46,1644481172.859375
3.43,1644481172.875
2.17,1644481172.890625
0.82,1644481172.90625
-0.45,1644481172.921875
-1.57,1644481172.9375
-2.6,1644481172.953125
-3.64,1644481172.96875
-4.79,1644481172.984375
-6.05,1644481173.0
-7.35,1644481173.015625
-8.61,1644481173.03125
-9.82,1644481173.046875
-11.05,1644481173.0625
-12.47,1644481173.078125
-14.16,1644481173.09375
-16.15,1644481173.109375
-18.38,1644481173.125
-20.78,1644481173.140625
-23.37,1644481173.15625
-26.2,1644481173.171875
-29.38,1644481173.1875
-32.82,1644481173.203125
-36.28,1644481173.21875
-39.23,1644481173.234375
-41.1,1644481173.25
-41.44,1644481173.265625
-40.04,1644481173.28125
-37.0,1644481173.296875
-32.72,1644481173.3125
-27.74,1644481173.328125
-22.56,1644481173.34375
-17.59,1644481173.359375
-13.09,1644481173.375
-9.18,1644481173.390625
-5.88,1644481173.40625
-3.19,1644481173.421875
-1.03,1644481173.4375
0.69,1644481173.453125
2.06,1644481173.46875
3.24,1644481173.484375
4.32,1644481173.5
5.38,1644481173.515625
6.42,1644481173.53125
7.31,1644481173.546875
7.9,1644481173.5625
8.06,1644481173.578125
7.78,1644481173.59375
7.3,1644481173.609375
7.08,1644481173.625
7.64,1644481173.640625
9.3,1644481173.65625
11.96,1644481173.671875
15.0,1644481173.6875
17.5,1644481173.703125
18.56,1644481173.71875
17.69,1644481173.734375
15.06,1644481173.75
11.31,1644481173.765625
7.34,1644481173.78125
3.91,1644481173.796875
1.33,1644481173.8125
-0.49,1644481173.828125
-1.82,1644481173.84375
-2.88,1644481173.859375
-3.66,1644481173.875
-4.05,1644481173.890625
-3.94,1644481173.90625
-3.48,1644481173.921875
-3.03,1644481173.9375
-3.04,1644481173.953125
-3.8,1644481173.96875
-5.26,1644481173.984375
-7.03,1644481174.0
-8.57,1644481174.015625
-9.45,1644481174.03125
-9.53,1644481174.046875
-9.05,1644481174.0625
-8.52,1644481174.078125
-8.49,1644481174.09375
-9.42,1644481174.109375
-11.58,1644481174.125
-14.94,1644481174.140625
-19.21,1644481174.15625
-23.81,1644481174.171875
-27.93,1644481174.1875
-30.69,1644481174.203125
-31.36,1644481174.21875
-29.6,1644481174.234375
-25.62,1644481174.25
-20.22,1644481174.265625
-14.45,1644481174.28125
-9.29,1644481174.296875
-5.29,1644481174.3125
-2.4,1644481174.328125
-0.08,1644481174.34375
2.42,1644481174.359375
5.69,1644481174.375
9.84,1644481174.390625
14.55,1644481174.40625
19.16,1644481174.421875
23.03,1644481174.4375
25.74,1644481174.453125
27.22,1644481174.46875
27.68,1644481174.484375
27.44,1644481174.5
26.77,1644481174.515625
25.85,1644481174.53125
24.77,1644481174.546875
23.61,1644481174.5625
22.5,1644481174.578125
21.58,1644481174.59375
20.87,1644481174.609375
20.25,1644481174.625
19.51,1644481174.640625
18.41,1644481174.65625
16.85,1644481174.671875
14.94,1644481174.6875
12.92,1644481174.703125
11.08,1644481174.71875
9.56,1644481174.734375
8.32,1644481174.75
7.08,1644481174.765625
5.48,1644481174.78125
3.24,1644481174.796875
0.31,1644481174.8125
-3.05,1644481174.828125
-6.32,1644481174.84375
-8.92,1644481174.859375
-10.45,1644481174.875
-10.88,1644481174.890625
-10.59,1644481174.90625
-10.18,1644481174.921875
-10.2,1644481174.9375
-10.86,1644481174.953125
-11.99,1644481174.96875
-13.2,1644481174.984375
-14.09,1644481175.0
-14.61,1644481175.015625
-15.03,1644481175.03125
-15.81,1644481175.046875
-17.3,1644481175.0625
-19.6,1644481175.078125
-22.52,1644481175.09375
-25.69,1644481175.109375
-28.82,1644481175.125
-31.67,1644481175.140625
-34.01,1644481175.15625
-35.55,1644481175.171875
-35.88,1644481175.1875
-34.63,1644481175.203125
-31.75,1644481175.21875
-27.55,1644481175.234375
-22.66,1644481175.25
-17.85,1644481175.265625
-13.73,1644481175.28125
-10.53,1644481175.296875
-8.15,1644481175.3125
-6.25,1644481175.328125
-4.46,1644481175.34375
-2.46,1644481175.359375
-0.09,1644481175.375
2.7,1644481175.390625
5.87,1644481175.40625
9.3,1644481175.421875
12.77,1644481175.4375
15.98,1644481175.453125
18.67,1644481175.46875
20.58,1644481175.484375
21.58,1644481175.5
21.69,1644481175.515625
21.06,1644481175.53125
19.94,1644481175.546875
18.66,1644481175.5625
17.59,1644481175.578125
17.05,1644481175.59375
17.19,1644481175.609375
17.97,1644481175.625
19.05,1644481175.640625
19.96,1644481175.65625
20.25,1644481175.671875
19.7,1644481175.6875
18.51,1644481175.703125
17.18,1644481175.71875
16.36,1644481175.734375
16.57,1644481175.75
17.91,1644481175.765625
20.08,1644481175.78125
22.41,1644481175.796875
24.13,1644481175.8125
24.63,1644481175.828125
23.58,1644481175.84375
21.05,1644481175.859375
17.41,1644481175.875
13.24,1644481175.890625
9.13,1644481175.90625
5.54,1644481175.921875
2.76,1644481175.9375
0.84,1644481175.953125
-0.28,1644481175.96875
-0.8,1644481175.984375
-0.93,1644481176.0
-0.84,1644481176.015625
-0.68,1644481176.03125
-0.49,1644481176.046875
-0.25,1644481176.0625
0.09,1644481176.078125
0.57,1644481176.09375
1.16,1644481176.109375
1.75,1644481176.125
2.13,1644481176.140625
2.01,1644481176.15625
1.1,1644481176.171875
-0.87,1644481176.1875
-4.06,1644481176.203125
-8.43,1644481176.21875
-13.69,1644481176.234375
-19.15,1644481176.25
-23.93,1644481176.265625
-27.07,1644481176.28125
-28.01,1644481176.296875
-26.71,1644481176.3125
-23.85,1644481176.328125
-20.47,1644481176.34375
-17.62,1644481176.359375
-15.94,1644481176.375
-15.48,1644481176.390625
-15.72,1644481176.40625
-15.92,1644481176.421875
-15.41,1644481176.4375
-13.79,1644481176.453125
-10.96,1644481176.46875
-7.05,1644481176.484375
-2.38,1644481176.5
2.57,1644481176.515625
7.16,1644481176.53125
10.63,1644481176.546875
12.38,1644481176.5625
12.22,1644481176.578125
10.5,1644481176.59375
8.1,1644481176.609375
6.05,1644481176.625
5.14,1644481176.640625
5.54,1644481176.65625
6.75,1644481176.671875
7.95,1644481176.6875
8.44,1644481176.703125
8.09,1644481176.71875
7.35,1644481176.734375
6.99,1644481176.75
7.54,1644481176.765625
8.98,1644481176.78125
10.77,1644481176.796875
12.13,1644481176.8125
12.54,1644481176.828125
11.99,1644481176.84375
10.85,1644481176.859375
9.59,1644481176.875
8.4,1644481176.890625
7.08,1644481176.90625
5.24,1644481176.921875
2.54,1644481176.9375
-0.98,1644481176.953125
-4.92,1644481176.96875
-8.66,1644481176.984375
-11.64,1644481177.0
-13.57,1644481177.015625
-14.54,1644481177.03125
-14.95,1644481177.046875
-15.38,1644481177.0625
-16.31,1644481177.078125
-18.04,1644481177.09375
-20.55,1644481177.109375
-23.51,1644481177.125
-26.43,1644481177.140625
-28.76,1644481177.15625
-30.05,1644481177.171875
-30.01,1644481177.1875
-28.56,1644481177.203125
-25.79,1644481177.21875
-21.89,1644481177.234375
-17.22,1644481177.25
-12.22,1644481177.265625
-7.4,1644481177.28125
-3.21,1644481177.296875
0.14,1644481177.3125
2.73,1644481177.328125
4.91,1644481177.34375
7.09,1644481177.359375
9.58,1644481177.375
12.38,1644481177.390625
15.17,1644481177.40625
17.62,1644481177.421875
19.45,1644481177.4375
20.67,1644481177.453125
21.52,1644481177.46875
22.26,1644481177.484375
23.02,1644481177.5
23.76,1644481177.515625
24.34,1644481177.53125
24.68,1644481177.546875
24.84,1644481177.5625
24.99,1644481177.578125
25.27,1644481177.59375
25.65,1644481177.609375
25.98,1644481177.625
26.02,1644481177.640625
25.57,1644481177.65625
24.59,1644481177.671875
23.13,1644481177.6875
21.36,1644481177.703125
19.45,1644481177.71875
17.54,1644481177.734375
15.74,1644481177.75
14.04,1644481177.765625
12.4,1644481177.78125
10.67,1644481177.796875
8.71,1644481177.8125
6.46,1644481177.828125
3.97,1644481177.84375
1.42,1644481177.859375
-0.94,1644481177.875
-2.93,1644481177.890625
-4.56,1644481177.90625
-5.96,1644481177.921875
-7.4,1644481177.9375
-9.13,1644481177.953125
-11.29,1644481177.96875
-13.88,1644481177.984375
-16.76,1644481178.0
-19.73,1644481178.015625
-22.52,1644481178.03125
-24.85,1644481178.046875
-26.47,1644481178.0625
-27.28,1644481178.078125
-27.45,1644481178.09375
-27.51,1644481178.109375
-28.2,1644481178.125
-30.16,1644481178.140625
-33.61,1644481178.15625
-38.1,1644481178.171875
-42.49,1644481178.1875
-45.38,1644481178.203125
-45.62,1644481178.21875
-42.68,1644481178.234375
-36.87,1644481178.25
-29.02,1644481178.265625
-20.12,1644481178.28125
-10.93,1644481178.296875
-1.88,1644481178.3125
6.8,1644481178.328125
14.79,1644481178.34375
21.57,1644481178.359375
26.46,1644481178.375
28.97,1644481178.390625
28.96,1644481178.40625
26.87,1644481178.421875
23.56,1644481178.4375
20.05,1644481178.453125
17.23,1644481178.46875
15.76,1644481178.484375
15.95,1644481178.5
17.84,1644481178.515625
21.21,1644481178.53125
25.64,1644481178.546875
30.6,1644481178.5625
35.62,1644481178.578125
40.38,1644481178.59375
44.75,1644481178.609375
48.7,1644481178.625
52.1,1644481178.640625
54.64,1644481178.65625
55.9,1644481178.671875
55.65,1644481178.6875
54.11,1644481178.703125
52.04,1644481178.71875
50.5,1644481178.734375
50.44,1644481178.75
52.28,1644481178.765625
55.79,1644481178.78125
60.27,1644481178.796875
64.99,1644481178.8125
69.45,1644481178.828125
73.53,1644481178.84375
77.31,1644481178.859375
80.96,1644481178.875
84.55,1644481178.890625
88.22,1644481178.90625
92.15,1644481178.921875
96.42,1644481178.9375
100.61,1644481178.953125
103.52,1644481178.96875
103.09,1644481178.984375
96.99,1644481179.0
83.57,1644481179.015625
62.59,1644481179.03125
35.55,1644481179.046875
5.12,1644481179.0625
-25.85,1644481179.078125
-55.21,1644481179.09375
-82.0,1644481179.109375
-106.14,1644481179.125
-127.76,1644481179.140625
-146.57,1644481179.15625
-161.71,1644481179.171875
-172.11,1644481179.1875
-177.02,1644481179.203125
-176.45,1644481179.21875
-171.23,1644481179.234375
-162.69,1644481179.25
-152.22,1644481179.265625
-140.86,1644481179.28125
-129.22,1644481179.296875
-117.55,1644481179.3125
-105.99,1644481179.328125
-94.78,1644481179.34375
-84.25,1644481179.359375
-74.72,1644481179.375
-66.34,1644481179.390625
-59.04,1644481179.40625
-52.49,1644481179.421875
-46.27,1644481179.4375
-40.02,1644481179.453125
-33.5,1644481179.46875
-26.71,1644481179.484375
-19.82,1644481179.5
-13.17,1644481179.515625
-7.06,1644481179.53125
-1.74,1644481179.546875
2.75,1644481179.5625
6.46,1644481179.578125
9.49,1644481179.59375
11.86,1644481179.609375
13.46,1644481179.625
14.16,1644481179.640625
13.97,1644481179.65625
13.21,1644481179.671875
12.52,1644481179.6875
12.7,1644481179.703125
14.36,1644481179.71875
17.57,1644481179.734375
21.79,1644481179.75
25.96,1644481179.765625
28.96,1644481179.78125
29.97,1644481179.796875
28.79,1644481179.8125
25.89,1644481179.828125
22.18,1644481179.84375
18.67,1644481179.859375
16.15,1644481179.875
15.04,1644481179.890625
15.38,1644481179.90625
16.97,1644481179.921875
19.48,1644481179.9375
22.56,1644481179.953125
25.83,1644481179.96875
28.77,1644481179.984375
30.76,1644481180.0
31.15,1644481180.015625
29.42,1644481180.03125
25.45,1644481180.046875
19.53,1644481180.0625
12.36,1644481180.078125
4.82,1644481180.09375
-2.23,1644481180.109375
-8.11,1644481180.125
-12.4,1644481180.140625
-14.94,1644481180.15625
-15.85,1644481180.171875
-15.59,1644481180.1875
-14.87,1644481180.203125
-14.61,1644481180.21875
-15.5,1644481180.234375
-17.72,1644481180.25
-20.84,1644481180.265625
-23.92,1644481180.28125
-25.91,1644481180.296875
-26.19,1644481180.3125
-24.74,1644481180.328125
-22.19,1644481180.34375
-19.39,1644481180.359375
-17.09,1644481180.375
-15.61,1644481180.390625
-14.81,1644481180.40625
-14.22,1644481180.421875
-13.33,1644481180.4375
-11.76,1644481180.453125
-9.39,1644481180.46875
-6.34,1644481180.484375
-2.81,1644481180.5
0.9,1644481180.515625
4.55,1644481180.53125
7.86,1644481180.546875
10.57,1644481180.5625
12.47,1644481180.578125
13.39,1644481180.59375
13.41,1644481180.609375
12.84,1644481180.625
12.13,1644481180.640625
11.81,1644481180.65625
12.18,1644481180.671875
13.21,1644481180.6875
14.58,1644481180.703125
15.81,1644481180.71875
16.54,1644481180.734375
16.67,1644481180.75
16.42,1644481180.765625
16.15,1644481180.78125
16.14,1644481180.796875
16.43,1644481180.8125
16.83,1644481180.828125
17.07,1644481180.84375
16.96,1644481180.859375
16.54,1644481180.875
15.98,1644481180.890625
15.45,1644481180.90625
14.91,1644481180.921875
14.2,1644481180.9375
13.14,1644481180.953125
11.7,1644481180.96875
10.16,1644481180.984375
8.9,1644481181.0
8.19,1644481181.015625
7.89,1644481181.03125
7.49,1644481181.046875
6.29,1644481181.0625
3.77,1644481181.078125
-0.06,1644481181.09375
-4.65,1644481181.109375
-9.01,1644481181.125
-12.1,1644481181.140625
-13.12,1644481181.15625
-11.7,1644481181.171875
-7.84,1644481181.1875
-1.85,1644481181.203125
5.76,1644481181.21875
14.37,1644481181.234375
23.33,1644481181.25
32.05,1644481181.265625
40.1,1644481181.28125
47.35,1644481181.296875
53.97,1644481181.3125
60.23,1644481181.328125
66.32,1644481181.34375
72.09,1644481181.359375
77.05,1644481181.375
80.6,1644481181.390625
82.35,1644481181.40625
82.41,1644481181.421875
81.38,1644481181.4375
80.07,1644481181.453125
78.92,1644481181.46875
77.58,1644481181.484375
74.68,1644481181.5
68.18,1644481181.515625
56.11,1644481181.53125
37.45,1644481181.546875
12.71,1644481181.5625
-16.1,1644481181.578125
-46.04,1644481181.59375
-74.06,1644481181.609375
-97.67,1644481181.625
-115.22,1644481181.640625
-125.96,1644481181.65625
-129.83,1644481181.671875
-127.45,1644481181.6875
-120.11,1644481181.703125
-109.8,1644481181.71875
-98.88,1644481181.734375
-89.59,1644481181.75
-83.31,1644481181.765625
-80.21,1644481181.78125
-79.28,1644481181.796875
-78.95,1644481181.8125
-77.76,1644481181.828125
-74.98,1644481181.84375
-70.71,1644481181.859375
-65.62,1644481181.875
-60.52,1644481181.890625
-56.0,1644481181.90625
-52.25,1644481181.921875
-49.17,1644481181.9375
-46.48,1644481181.953125
-43.89,1644481181.96875
-41.1,1644481181.984375
-37.85,1644481182.0
-34.02,1644481182.015625
-29.77,1644481182.03125
-25.62,1644481182.046875
-22.34,1644481182.0625
-20.65,1644481182.078125
-20.74,1644481182.09375
-22.12,1644481182.109375
-23.65,1644481182.125
-24.08,1644481182.140625
-22.52,1644481182.15625
-18.74,1644481182.171875
-13.16,1644481182.1875
-6.47,1644481182.203125
0.68,1644481182.21875
7.89,1644481182.234375
14.83,1644481182.25
21.16,1644481182.265625
26.38,1644481182.28125
30.06,1644481182.296875
32.05,1644481182.3125
32.6,1644481182.328125
32.35,1644481182.34375
31.94,1644481182.359375
31.85,1644481182.375
32.15,1644481182.390625
32.67,1644481182.40625
33.17,1644481182.421875
33.51,1644481182.4375
33.68,1644481182.453125
33.74,1644481182.46875
33.71,1644481182.484375
33.59,1644481182.5
33.34,1644481182.515625
32.97,1644481182.53125
32.59,1644481182.546875
32.31,1644481182.5625
32.2,1644481182.578125
32.18,1644481182.59375
32.01,1644481182.609375
31.4,1644481182.625
30.1,1644481182.640625
28.0,1644481182.65625
25.24,1644481182.671875
22.17,1644481182.6875
19.24,1644481182.703125
16.83,1644481182.71875
15.06,1644481182.734375
13.75,1644481182.75
12.5,1644481182.765625
10.86,1644481182.78125
8.51,1644481182.796875
5.44,1644481182.8125
1.91,1644481182.828125
-1.67,1644481182.84375
-4.86,1644481182.859375
-7.32,1644481182.875
-8.97,1644481182.890625
-9.95,1644481182.90625
-10.64,1644481182.921875
-11.46,1644481182.9375
-12.78,1644481182.953125
-14.81,1644481182.96875
-17.57,1644481182.984375
-20.91,1644481183.0
-24.63,1644481183.015625
-28.54,1644481183.03125
-32.53,1644481183.046875
-36.45,1644481183.0625
-40.11,1644481183.078125
-43.26,1644481183.09375
-45.54,1644481183.109375
-46.59,1644481183.125
-46.18,1644481183.140625
-44.26,1644481183.15625
-40.97,1644481183.171875
-36.57,1644481183.1875
-31.35,1644481183.203125
-25.55,1644481183.21875
-19.4,1644481183.234375
-13.17,1644481183.25
-7.26,1644481183.265625
-2.06,1644481183.28125
2.07,1644481183.296875
5.09,1644481183.3125
7.24,1644481183.328125
9.04,1644481183.34375
11.02,1644481183.359375
13.52,1644481183.375
16.56,1644481183.390625
19.87,1644481183.40625
22.98,1644481183.421875
25.44,1644481183.4375
26.91,1644481183.453125
27.28,1644481183.46875
26.69,1644481183.484375
25.47,1644481183.5
24.12,1644481183.515625
23.05,1644481183.53125
22.46,1644481183.546875
22.25,1644481183.5625
22.12,1644481183.578125
21.74,1644481183.59375
20.95,1644481183.609375
19.82,1644481183.625
18.6,1644481183.640625
17.57,1644481183.65625
16.85,1644481183.671875
16.37,1644481183.6875
16.01,1644481183.703125
15.64,1644481183.71875
15.33,1644481183.734375
15.24,1644481183.75
15.48,1644481183.765625
16.03,1644481183.78125
16.62,1644481183.796875
16.83,1644481183.8125
16.28,1644481183.828125
14.8,1644481183.84375
12.49,1644481183.859375
9.68,1644481183.875
6.82,1644481183.890625
4.27,1644481183.90625
2.19,1644481183.921875
0.47,1644481183.9375
-1.14,1644481183.953125
-2.92,1644481183.96875
-5.08,1644481183.984375
-7.68,1644481184.0
-10.72,1644481184.015625
-14.09,1644481184.03125
-17.72,1644481184.046875
-21.39,1644481184.0625
-24.82,1644481184.078125
-27.6,1644481184.09375
-29.33,1644481184.109375
-29.74,1644481184.125
-28.87,1644481184.140625
-27.03,1644481184.15625
-24.68,1644481184.171875
-22.21,1644481184.1875
-19.82,1644481184.203125
-17.56,1644481184.21875
-15.35,1644481184.234375
-13.11,1644481184.25
-10.83,1644481184.265625
-8.48,1644481184.28125
-5.99,1644481184.296875
-3.23,1644481184.3125
-0.15,1644481184.328125
3.23,1644481184.34375
6.65,1644481184.359375
9.78,1644481184.375
12.28,1644481184.390625
13.97,1644481184.40625
14.89,1644481184.421875
15.28,1644481184.4375
15.47,1644481184.453125
15.74,1644481184.46875
16.23,1644481184.484375
16.92,1644481184.5
17.6,1644481184.515625
18.12,1644481184.53125
18.34,1644481184.546875
18.24,1644481184.5625
17.88,1644481184.578125
17.3,1644481184.59375
16.57,1644481184.609375
15.79,1644481184.625
15.11,1644481184.640625
14.76,1644481184.65625
14.88,1644481184.671875
15.46,1644481184.6875
16.25,1644481184.703125
16.85,1644481184.71875
16.91,1644481184.734375
16.26,1644481184.75
15.04,1644481184.765625
13.5,1644481184.78125
11.92,1644481184.796875
10.36,1644481184.8125
8.66,1644481184.828125
6.54,1644481184.84375
3.77,1644481184.859375
0.3,1644481184.875
-3.67,1644481184.890625
-7.72,1644481184.90625
-11.37,1644481184.921875
-14.2,1644481184.9375
-16.11,1644481184.953125
-17.33,1644481184.96875
-18.4,1644481184.984375
-19.99,1644481185.0
-22.61,1644481185.015625
-26.31,1644481185.03125
-30.68,1644481185.046875
-34.92,1644481185.0625
-38.14,1644481185.078125
-39.67,1644481185.09375
-39.23,1644481185.109375
-36.89,1644481185.125
-33.02,1644481185.140625
-28.04,1644481185.15625
-22.44,1644481185.171875
-16.69,1644481185.1875
-11.23,1644481185.203125
-6.48,1644481185.21875
-2.62,1644481185.234375
0.44,1644481185.25
3.0,1644481185.265625
5.52,1644481185.28125
8.35,1644481185.296875
11.65,1644481185.3125
15.26,1644481185.328125
18.85,1644481185.34375
22.02,1644481185.359375
24.44,1644481185.375
25.92,1644481185.390625
26.43,1644481185.40625
26.08,1644481185.421875
25.11,1644481185.4375
23.91,1644481185.453125
22.93,1644481185.46875
22.6,1644481185.484375
23.18,1644481185.5
24.63,1644481185.515625
26.59,1644481185.53125
28.45,1644481185.546875
29.59,1644481185.5625
29.54,1644481185.578125
28.22,1644481185.59375
25.9,1644481185.609375
23.17,1644481185.625
20.62,1644481185.640625
18.69,1644481185.65625
17.44,1644481185.671875
16.55,1644481185.6875
15.59,1644481185.703125
14.14,1644481185.71875
12.07,1644481185.734375
9.54,1644481185.75
6.93,1644481185.765625
4.65,1644481185.78125
2.93,1644481185.796875
1.79,1644481185.8125
1.04,1644481185.828125
0.42,1644481185.84375
-0.36,1644481185.859375
-1.54,1644481185.875
-3.29,1644481185.890625
-5.69,1644481185.90625
-8.68,1644481185.921875
-12.07,1644481185.9375
-15.62,1644481185.953125
-19.01,1644481185.96875
-22.1,1644481185.984375
-24.83,1644481186.0
-27.33,1644481186.015625
-29.77,1644481186.03125
-32.3,1644481186.046875
-34.94,1644481186.0625
-37.55,1644481186.078125
-39.84,1644481186.09375
-41.41,1644481186.109375
-41.84,1644481186.125
-40.81,1644481186.140625
-38.17,1644481186.15625
-33.99,1644481186.171875
-28.55,1644481186.1875
-22.31,1644481186.203125
-15.79,1644481186.21875
-9.53,1644481186.234375
-3.91,1644481186.25
0.82,1644481186.265625
4.63,1644481186.28125
7.64,1644481186.296875
10.08,1644481186.3125
12.18,1644481186.328125
14.08,1644481186.34375
15.83,1644481186.359375
17.38,1644481186.375
18.71,1644481186.390625
19.83,1644481186.40625
20.79,1644481186.421875
21.65,1644481186.4375
22.4,1644481186.453125
22.99,1644481186.46875
23.4,1644481186.484375
23.71,1644481186.5
24.08,1644481186.515625
24.64,1644481186.53125
25.43,1644481186.546875
26.24,1644481186.5625
26.73,1644481186.578125
26.58,1644481186.59375
25.68,1644481186.609375
24.13,1644481186.625
22.26,1644481186.640625
20.39,1644481186.65625
18.75,1644481186.671875
17.4,1644481186.6875
16.31,1644481186.703125
15.42,1644481186.71875
14.68,1644481186.734375
14.05,1644481186.75
13.43,1644481186.765625
12.69,1644481186.78125
11.71,1644481186.796875
10.45,1644481186.8125
8.9,1644481186.828125
7.1,1644481186.84375
5.02,1644481186.859375
2.55,1644481186.875
-0.39,1644481186.890625
-3.74,1644481186.90625
-7.2,1644481186.921875
-10.24,1644481186.9375
-12.34,1644481186.953125
-13.22,1644481186.96875
-13.07,1644481186.984375
-12.56,1644481187.0
-12.58,1644481187.015625
-13.91,1644481187.03125
-16.87,1644481187.046875
-21.23,1644481187.0625
-26.36,1644481187.078125
-31.59,1644481187.09375
-36.46,1644481187.109375
-40.86,1644481187.125
-44.91,1644481187.140625
-48.6,1644481187.15625
-51.69,1644481187.171875
-53.59,1644481187.1875
-53.68,1644481187.203125
-51.52,1644481187.21875
-47.11,1644481187.234375
-40.87,1644481187.25
-33.55,1644481187.265625
-25.95,1644481187.28125
-18.78,1644481187.296875
-12.46,1644481187.3125
-7.16,1644481187.328125
-2.8,1644481187.34375
0.89,1644481187.359375
4.29,1644481187.375
7.76,1644481187.390625
11.49,1644481187.40625
15.48,1644481187.421875
19.46,1644481187.4375
23.08,1644481187.453125
26.07,1644481187.46875
28.32,1644481187.484375
29.96,1644481187.5
31.15,1644481187.515625
32.03,1644481187.53125
32.52,1644481187.546875
32.5,1644481187.5625
31.87,1644481187.578125
30.7,1644481187.59375
29.23,1644481187.609375
27.79,1644481187.625
26.62,1644481187.640625
25.75,1644481187.65625
25.03,1644481187.671875
24.26,1644481187.6875
23.3,1644481187.703125
22.15,1644481187.71875
20.92,1644481187.734375
19.72,1644481187.75
18.55,1644481187.765625
17.33,1644481187.78125
15.97,1644481187.796875
14.41,1644481187.8125
12.66,1644481187.828125
10.8,1644481187.84375
8.91,1644481187.859375
7.06,1644481187.875
5.31,1644481187.890625
3.71,1644481187.90625
2.4,1644481187.921875
1.53,1644481187.9375
1.24,1644481187.953125
1.49,1644481187.96875
1.99,1644481187.984375
2.26,1644481188.0
1.79,1644481188.015625
0.23,1644481188.03125
-2.41,1644481188.046875
-5.78,1644481188.0625
-9.37,1644481188.078125
-12.75,1644481188.09375
-15.77,1644481188.109375
-18.56,1644481188.125
-21.44,1644481188.140625
-24.7,1644481188.15625
-28.48,1644481188.171875
-32.65,1644481188.1875
-36.84,1644481188.203125
-40.49,1644481188.21875
-42.99,1644481188.234375
-43.76,1644481188.25
-42.46,1644481188.265625
-39.08,1644481188.28125
-33.95,1644481188.296875
-27.68,1644481188.3125
-20.92,1644481188.328125
-14.34,1644481188.34375
-8.4,1644481188.359375
-3.43,1644481188.375
0.48,1644481188.390625
3.43,1644481188.40625
5.74,1644481188.421875
7.86,1644481188.4375
10.22,1644481188.453125
13.06,1644481188.46875
16.26,1644481188.484375
19.42,1644481188.5
22.02,1644481188.515625
23.68,1644481188.53125
24.36,1644481188.546875
24.34,1644481188.5625
24.07,1644481188.578125
23.87,1644481188.59375
23.84,1644481188.609375
23.77,1644481188.625
23.37,1644481188.640625
22.46,1644481188.65625
21.07,1644481188.671875
19.46,1644481188.6875
17.95,1644481188.703125
16.75,1644481188.71875
15.83,1644481188.734375
14.99,1644481188.75
14.04,1644481188.765625
12.9,1644481188.78125
11.59,1644481188.796875
10.22,1644481188.8125
8.82,1644481188.828125
7.38,1644481188.84375
5.84,1644481188.859375
4.2,1644481188.875
2.6,1644481188.890625
1.22,1644481188.90625
0.21,1644481188.921875
-0.41,1644481188.9375
-0.8,1644481188.953125
-1.21,1644481188.96875
-1.92,1644481188.984375
-3.14,1644481189.0
-4.96,1644481189.015625
-7.38,1644481189.03125
-10.28,1644481189.046875
-13.49,1644481189.0625
-16.77,1644481189.078125
-19.87,1644481189.09375
-22.63,1644481189.109375
-25.04,1644481189.125
-27.2,1644481189.140625
-29.28,1644481189.15625
-31.36,1644481189.171875
-33.25,1644481189.1875
-34.49,1644481189.203125
-34.41,1644481189.21875
-32.39,1644481189.234375
-28.06,1644481189.25
-21.5,1644481189.265625
-13.25,1644481189.28125
-4.16,1644481189.296875
4.88,1644481189.3125
13.12,1644481189.328125
20.17,1644481189.34375
26.0,1644481189.359375
30.95,1644481189.375
35.59,1644481189.390625
40.65,1644481189.40625
46.85,1644481189.421875
54.65,1644481189.4375
63.86,1644481189.453125
73.41,1644481189.46875
81.41,1644481189.484375
85.57,1644481189.5
84.0,1644481189.515625
76.01,1644481189.53125
62.46,1644481189.546875
45.51,1644481189.5625
27.87,1644481189.578125
11.91,1644481189.59375
-1.01,1644481189.609375
-10.64,1644481189.625
-17.44,1644481189.640625
-22.13,1644481189.65625
-25.23,1644481189.671875
-27.01,1644481189.6875
-27.69,1644481189.703125
-27.56,1644481189.71875
-27.08,1644481189.734375
-26.7,1644481189.75
-26.66,1644481189.765625
-26.94,1644481189.78125
-27.25,1644481189.796875
-27.23,1644481189.8125
-26.64,1644481189.828125
-25.56,1644481189.84375
-24.33,1644481189.859375
-23.41,1644481189.875
-23.11,1644481189.890625
-23.41,1644481189.90625
-23.96,1644481189.921875
-24.18,1644481189.9375
-23.62,1644481189.953125
-22.08,1644481189.96875
-19.77,1644481189.984375
-17.17,1644481190.0
-14.87,1644481190.015625
-13.37,1644481190.03125
-12.96,1644481190.046875
-13.67,1644481190.0625
-15.33,1644481190.078125
-17.64,1644481190.09375
-20.26,1644481190.109375
-22.87,1644481190.125
-25.38,1644481190.140625
-27.84,1644481190.15625
-30.54,1644481190.171875
-33.72,1644481190.1875
-37.37,1644481190.203125
-41.1,1644481190.21875
-44.16,1644481190.234375
-45.66,1644481190.25
-44.87,1644481190.265625
-41.5,1644481190.28125
-35.8,1644481190.296875
-28.46,1644481190.3125
-20.38,1644481190.328125
-12.46,1644481190.34375
-5.43,1644481190.359375
0.26,1644481190.375
4.42,1644481190.390625
7.12,1644481190.40625
8.63,1644481190.421875
9.43,1644481190.4375
10.03,1644481190.453125
10.83,1644481190.46875
12.07,1644481190.484375
13.69,1644481190.5
15.48,1644481190.515625
17.13,1644481190.53125
18.38,1644481190.546875
19.15,1644481190.5625
19.49,1644481190.578125
19.55,1644481190.59375
19.52,1644481190.609375
19.55,1644481190.625
19.72,1644481190.640625
20.05,1644481190.65625
20.45,1644481190.671875
20.83,1644481190.6875
21.07,1644481190.703125
21.11,1644481190.71875
20.93,1644481190.734375
20.56,1644481190.75
20.01,1644481190.765625
19.29,1644481190.78125
18.43,1644481190.796875
17.47,1644481190.8125
16.5,1644481190.828125
15.6,1644481190.84375
14.77,1644481190.859375
13.94,1644481190.875
13.01,1644481190.890625
11.93,1644481190.90625
10.81,1644481190.921875
9.89,1644481190.9375
9.41,1644481190.953125
9.38,1644481190.96875
9.63,1644481190.984375
9.78,1644481191.0
9.48,1644481191.015625
8.59,1644481191.03125
7.19,1644481191.046875
5.47,1644481191.0625
3.59,1644481191.078125
1.61,1644481191.09375
-0.51,1644481191.109375
-2.79,1644481191.125
-5.13,1644481191.140625
-7.43,1644481191.15625
-9.57,1644481191.171875
-11.56,1644481191.1875
-13.53,1644481191.203125
-15.62,1644481191.21875
-17.99,1644481191.234375
-20.67,1644481191.25
-23.64,1644481191.265625
-26.87,1644481191.28125
-30.31,1644481191.296875
-33.87,1644481191.3125
-37.3,1644481191.328125
-40.24,1644481191.34375
-42.17,1644481191.359375
-42.66,1644481191.375
-41.34,1644481191.390625
-38.03,1644481191.40625
-32.85,1644481191.421875
-26.23,1644481191.4375
-18.92,1644481191.453125
-11.84,1644481191.46875
-5.89,1644481191.484375
-1.59,1644481191.5
1.07,1644481191.515625
2.64,1644481191.53125
3.87,1644481191.546875
5.42,1644481191.5625
7.53,1644481191.578125
10.07,1644481191.59375
12.65,1644481191.609375
14.94,1644481191.625
16.89,1644481191.640625
18.68,1644481191.65625
20.55,1644481191.671875
22.63,1644481191.6875
24.82,1644481191.703125
26.87,1644481191.71875
28.51,1644481191.734375
29.61,1644481191.75
30.23,1644481191.765625
30.57,1644481191.78125
30.81,1644481191.796875
31.02,1644481191.8125
31.04,1644481191.828125
30.68,1644481191.84375
29.71,1644481191.859375
28.11,1644481191.875
26.04,1644481191.890625
23.79,1644481191.90625
21.62,1644481191.921875
19.66,1644481191.9375
17.86,1644481191.953125
16.11,1644481191.96875
14.37,1644481191.984375
12.65,1644481192.0
11.1,1644481192.015625
9.82,1644481192.03125
8.81,1644481192.046875
7.9,1644481192.0625
6.91,1644481192.078125
5.71,1644481192.09375
4.34,1644481192.109375
3.0,1644481192.125
1.91,1644481192.140625
1.14,1644481192.15625
0.54,1644481192.171875
-0.19,1644481192.1875
-1.36,1644481192.203125
-3.12,1644481192.21875
-5.38,1644481192.234375
-7.91,1644481192.25
-10.45,1644481192.265625
-12.86,1644481192.28125
-15.16,1644481192.296875
-17.46,1644481192.3125
-19.86,1644481192.328125
-22.38,1644481192.34375
-24.99,1644481192.359375
-27.65,1644481192.375
-30.39,1644481192.390625
-33.23,1644481192.40625
-36.05,1644481192.421875
-38.45,1644481192.4375
-39.83,1644481192.453125
-39.5,1644481192.46875
-37.08,1644481192.484375
-32.63,1644481192.5
-26.79,1644481192.515625
-20.52,1644481192.53125
-14.79,1644481192.546875
-10.21,1644481192.5625
-6.89,1644481192.578125
-4.58,1644481192.59375
-2.81,1644481192.609375
-1.16,1644481192.625
0.57,1644481192.640625
2.4,1644481192.65625
4.18,1644481192.671875
5.8,1644481192.6875
7.22,1644481192.703125
8.47,1644481192.71875
9.65,1644481192.734375
10.81,1644481192.75
11.93,1644481192.765625
12.88,1644481192.78125
13.53,1644481192.796875
13.88,1644481192.8125
14.05,1644481192.828125
14.3,1644481192.84375
14.87,1644481192.859375
15.82,1644481192.875
16.98,1644481192.890625
18.05,1644481192.90625
18.72,1644481192.921875
18.88,1644481192.9375
18.58,1644481192.953125
18.09,1644481192.96875
17.64,1644481192.984375
17.38,1644481193.0
17.25,1644481193.015625
17.11,1644481193.03125
16.78,1644481193.046875
16.2,1644481193.0625
15.44,1644481193.078125
14.66,1644481193.09375
13.97,1644481193.109375
13.36,1644481193.125
12.62,1644481193.140625
11.47,1644481193.15625
9.71,1644481193.171875
7.39,1644481193.1875
4.82,1644481193.203125
2.41,1644481193.21875
0.49,1644481193.234375
-0.91,1644481193.25
-2.03,1644481193.265625
-3.2,1644481193.28125
-4.66,1644481193.296875
-6.45,1644481193.3125
-8.44,1644481193.328125
-10.58,1644481193.34375
-12.96,1644481193.359375
-15.87,1644481193.375
-19.6,1644481193.390625
-24.3,1644481193.40625
-29.82,1644481193.421875
-35.65,1644481193.4375
-41.0,1644481193.453125
-44.97,1644481193.46875
-46.76,1644481193.484375
-45.82,1644481193.5
-42.1,1644481193.515625
-36.06,1644481193.53125
-28.61,1644481193.546875
-20.86,1644481193.5625
-13.79,1644481193.578125
-7.9,1644481193.59375
-3.13,1644481193.609375
0.99,1644481193.625
5.04,1644481193.640625
9.4,1644481193.65625
14.03,1644481193.671875
18.58,1644481193.6875
22.61,1644481193.703125
25.89,1644481193.71875
28.58,1644481193.734375
31.19,1644481193.75
34.32,1644481193.765625
38.27,1644481193.78125
42.85,1644481193.796875
47.48,1644481193.8125
51.5,1644481193.828125
54.58,1644481193.84375
56.93,1644481193.859375
59.2,1644481193.875
62.08,1644481193.890625
66.03,1644481193.90625
71.15,1644481193.921875
77.52,1644481193.9375
85.33,1644481193.953125
94.78,1644481193.96875
105.53,1644481193.984375
116.12,1644481194.0
123.82,1644481194.015625
125.42,1644481194.03125
118.63,1644481194.046875
103.17,1644481194.0625
81.07,1644481194.078125
55.76,1644481194.09375
30.58,1644481194.109375
7.63,1644481194.125
-12.54,1644481194.140625
-30.12,1644481194.15625
-45.04,1644481194.171875
-56.53,1644481194.1875
-63.47,1644481194.203125
-65.34,1644481194.21875
-62.89,1644481194.234375
-58.17,1644481194.25
-53.59,1644481194.265625
-50.87,1644481194.28125
-50.37,1644481194.296875
-51.22,1644481194.3125
-52.07,1644481194.328125
-51.85,1644481194.34375
-50.33,1644481194.359375
-47.94,1644481194.375
-45.44,1644481194.390625
-43.35,1644481194.40625
-41.83,1644481194.421875
-40.74,1644481194.4375
-39.92,1644481194.453125
-39.5,1644481194.46875
-39.85,1644481194.484375
-41.53,1644481194.5
-44.89,1644481194.515625
-49.8,1644481194.53125
-55.6,1644481194.546875
-61.17,1644481194.5625
-65.28,1644481194.578125
-66.99,1644481194.59375
-65.92,1644481194.609375
-62.35,1644481194.625
-57.06,1644481194.640625
-51.02,1644481194.65625
-45.09,1644481194.671875
-39.73,1644481194.6875
-35.04,1644481194.703125
-30.85,1644481194.71875
-26.91,1644481194.734375
-23.07,1644481194.75
-19.25,1644481194.765625
-15.53,1644481194.78125
-11.98,1644481194.796875
-8.64,1644481194.8125
-5.52,1644481194.828125
-2.64,1644481194.84375
-0.03,1644481194.859375
2.2,1644481194.875
3.97,1644481194.890625
5.24,1644481194.90625
6.14,1644481194.921875
6.88,1644481194.9375
7.74,1644481194.953125
8.9,1644481194.96875
10.38,1644481194.984375
12.03,1644481195.0
13.55,1644481195.015625
14.72,1644481195.03125
15.35,1644481195.046875
15.38,1644481195.0625
14.84,1644481195.078125
13.8,1644481195.09375
12.39,1644481195.109375
10.75,1644481195.125
9.04,1644481195.140625
7.45,1644481195.15625
6.13,1644481195.171875
5.13,1644481195.1875
4.4,1644481195.203125
3.82,1644481195.21875
3.28,1644481195.234375
2.66,1644481195.25
1.88,1644481195.265625
0.87,1644481195.28125
-0.32,1644481195.296875
-1.59,1644481195.3125
-2.78,1644481195.328125
-3.71,1644481195.34375
-4.34,1644481195.359375
-4.8,1644481195.375
-5.35,1644481195.390625
-6.31,1644481195.40625
-7.84,1644481195.421875
-9.9,1644481195.4375
-12.19,1644481195.453125
-14.35,1644481195.46875
-16.09,1644481195.484375
-17.4,1644481195.5
-18.51,1644481195.515625
-19.87,1644481195.53125
-21.93,1644481195.546875
-24.95,1644481195.5625
-28.83,1644481195.578125
-33.11,1644481195.59375
-36.96,1644481195.609375
-39.42,1644481195.625
-39.54,1644481195.640625
-36.66,1644481195.65625
-30.56,1644481195.671875
-21.51,1644481195.6875
-10.26,1644481195.703125
2.2,1644481195.71875
14.88,1644481195.734375
27.0,1644481195.75
38.09,1644481195.765625
47.99,1644481195.78125
56.68,1644481195.796875
64.2,1644481195.8125
70.57,1644481195.828125
75.83,1644481195.84375
80.05,1644481195.859375
83.44,1644481195.875
86.39,1644481195.890625
89.56,1644481195.90625
93.68,1644481195.921875
99.19,1644481195.9375
105.75,1644481195.953125
111.82,1644481195.96875
114.96,1644481195.984375
112.44,1644481196.0
102.54,1644481196.015625
85.34,1644481196.03125
62.82,1644481196.046875
38.17,1644481196.0625
14.48,1644481196.078125
-6.33,1644481196.09375
-23.73,1644481196.109375
-38.11,1644481196.125
-49.9,1644481196.140625
-59.0,1644481196.15625
-64.91,1644481196.171875
-67.38,1644481196.1875
-66.95,1644481196.203125
-65.02,1644481196.21875
-63.28,1644481196.234375
-62.91,1644481196.25
-63.99,1644481196.265625
-65.58,1644481196.28125
-66.21,1644481196.296875
-64.61,1644481196.3125
-60.38,1644481196.328125
-54.03,1644481196.34375
-46.67,1644481196.359375
-39.54,1644481196.375
-33.57,1644481196.390625
-29.15,1644481196.40625
-26.13,1644481196.421875
-24.03,1644481196.4375
-22.25,1644481196.453125
-20.41,1644481196.46875
-18.38,1644481196.484375
-16.37,1644481196.5
-14.84,1644481196.515625
-14.22,1644481196.53125
-14.9,1644481196.546875
-16.99,1644481196.5625
-20.42,1644481196.578125
-24.89,1644481196.59375
-29.99,1644481196.609375
-35.15,1644481196.625
-39.69,1644481196.640625
-42.95,1644481196.65625
-44.37,1644481196.671875
-43.68,1644481196.6875
-40.94,1644481196.703125
-36.54,1644481196.71875
-31.05,1644481196.734375
-25.09,1644481196.75
-19.18,1644481196.765625
-13.74,1644481196.78125
-8.98,1644481196.796875
-4.99,1644481196.8125
-1.62,1644481196.828125
1.39,1644481196.84375
4.36,1644481196.859375
7.47,1644481196.875
10.67,1644481196.890625
13.74,1644481196.90625
16.4,1644481196.921875
18.52,1644481196.9375
20.17,1644481196.953125
21.5,1644481196.96875
22.61,1644481196.984375
23.43,1644481197.0
23.78,1644481197.015625
23.55,1644481197.03125
22.89,1644481197.046875
22.19,1644481197.0625
21.96,1644481197.078125
22.51,1644481197.09375
23.77,1644481197.109375
25.31,1644481197.125
26.52,1644481197.140625
26.96,1644481197.15625
26.51,1644481197.171875
25.43,1644481197.1875
24.22,1644481197.203125
23.32,1644481197.21875
22.94,1644481197.234375
22.99,1644481197.25
23.18,1644481197.265625
23.15,1644481197.28125
22.64,1644481197.296875
21.53,1644481197.3125
19.82,1644481197.328125
17.59,1644481197.34375
14.86,1644481197.359375
11.67,1644481197.375
8.03,1644481197.390625
4.07,1644481197.40625
0.04,1644481197.421875
-3.68,1644481197.4375
-6.74,1644481197.453125
-8.95,1644481197.46875
-10.37,1644481197.484375
-11.38,1644481197.5
-12.49,1644481197.515625
-14.18,1644481197.53125
-16.69,1644481197.546875
-19.95,1644481197.5625
-23.64,1644481197.578125
-27.41,1644481197.59375
-31.02,1644481197.609375
-34.46,1644481197.625
-37.84,1644481197.640625
-41.14,1644481197.65625
-44.08,1644481197.671875
-46.05,1644481197.6875
-46.34,1644481197.703125
-44.37,1644481197.71875
-40.01,1644481197.734375
-33.63,1644481197.75
-26.02,1644481197.765625
-18.1,1644481197.78125
-10.66,1644481197.796875
-4.24,1644481197.8125
1.0,1644481197.828125
5.12,1644481197.84375
8.37,1644481197.859375
11.06,1644481197.875
13.44,1644481197.890625
15.66,1644481197.90625
17.72,1644481197.921875
19.47,1644481197.9375
20.77,1644481197.953125
21.57,1644481197.96875
22.03,1644481197.984375
22.55,1644481198.0
23.55,1644481198.015625
25.35,1644481198.03125
27.94,1644481198.046875
30.99,1644481198.0625
33.97,1644481198.078125
36.45,1644481198.09375
38.18,1644481198.109375
39.21,1644481198.125
39.68,1644481198.140625
39.69,1644481198.15625
39.23,1644481198.171875
38.18,1644481198.1875
36.55,1644481198.203125
34.56,1644481198.21875
32.65,1644481198.234375
31.27,1644481198.25
30.68,1644481198.265625
30.76,1644481198.28125
31.05,1644481198.296875
30.95,1644481198.3125
30.05,1644481198.328125
28.24,1644481198.34375
25.8,1644481198.359375
23.2,1644481198.375
20.93,1644481198.390625
19.26,1644481198.40625
18.26,1644481198.421875
17.77,1644481198.4375
17.51,1644481198.453125
17.14,1644481198.46875
16.32,1644481198.484375
14.74,1644481198.5
12.1,1644481198.515625
8.2,1644481198.53125
3.0,1644481198.546875
-3.26,1644481198.5625
-10.15,1644481198.578125
-17.13,1644481198.59375
-23.71,1644481198.609375
-29.72,1644481198.625
-35.21,1644481198.640625
-40.4,1644481198.65625
-45.36,1644481198.671875
-49.82,1644481198.6875
-53.09,1644481198.703125
-54.33,1644481198.71875
-52.89,1644481198.734375
-48.68,1644481198.75
-42.27,1644481198.765625
-34.7,1644481198.78125
-27.14,1644481198.796875
-20.45,1644481198.8125
-15.04,1644481198.828125
-10.83,1644481198.84375
-7.54,1644481198.859375
-4.82,1644481198.875
-2.4,1644481198.890625
-0.09,1644481198.90625
2.26,1644481198.921875
4.77,1644481198.9375
7.52,1644481198.953125
10.45,1644481198.96875
13.41,1644481198.984375
16.2,1644481199.0
18.61,1644481199.015625
20.58,1644481199.03125
22.12,1644481199.046875
23.31,1644481199.0625
24.18,1644481199.078125
24.73,1644481199.09375
24.85,1644481199.109375
24.52,1644481199.125
23.73,1644481199.140625
22.57,1644481199.15625
21.16,1644481199.171875
19.57,1644481199.1875
17.83,1644481199.203125
15.91,1644481199.21875
13.83,1644481199.234375
11.62,1644481199.25
9.38,1644481199.265625
7.26,1644481199.28125
5.35,1644481199.296875
3.69,1644481199.3125
2.18,1644481199.328125
0.68,1644481199.34375
-1.01,1644481199.359375
-3.04,1644481199.375
-5.52,1644481199.390625
-8.42,1644481199.40625
-11.6,1644481199.421875
-14.84,1644481199.4375
-17.87,1644481199.453125
-20.5,1644481199.46875
-22.68,1644481199.484375
-24.58,1644481199.5
-26.51,1644481199.515625
-28.86,1644481199.53125
-31.96,1644481199.546875
-35.92,1644481199.5625
-40.57,1644481199.578125
-45.43,1644481199.59375
-49.77,1644481199.609375
-52.74,1644481199.625
-53.61,1644481199.640625
-51.93,1644481199.65625
-47.76,1644481199.671875
-41.65,1644481199.6875
-34.5,1644481199.703125
-27.29,1644481199.71875
-20.72,1644481199.734375
-15.06,1644481199.75
-10.11,1644481199.765625
-5.47,1644481199.78125
-0.81,1644481199.796875
3.95,1644481199.8125
8.63,1644481199.828125
12.91,1644481199.84375
16.5,1644481199.859375
19.28,1644481199.875
21.29,1644481199.890625
22.68,1644481199.90625
23.7,1644481199.921875
24.52,1644481199.9375
25.28,1644481199.953125
26.04,1644481199.96875
26.74,1644481199.984375
27.32,1644481200.0
27.74,1644481200.015625
28.08,1644481200.03125
28.51,1644481200.046875
29.14,1644481200.0625
29.97,1644481200.078125
30.82,1644481200.09375
31.41,1644481200.109375
31.5,1644481200.125
31.05,1644481200.140625
30.23,1644481200.15625
29.36,1644481200.171875
28.7,1644481200.1875
28.31,1644481200.203125
27.99,1644481200.21875
27.39,1644481200.234375
26.16,1644481200.25
24.14,1644481200.265625
21.48,1644481200.28125
18.6,1644481200.296875
16.01,1644481200.3125
14.09,1644481200.328125
12.91,1644481200.34375
12.22,1644481200.359375
11.49,1644481200.375
10.21,1644481200.390625
8.08,1644481200.40625
5.13,1644481200.421875
1.65,1644481200.4375
-2.01,1644481200.453125
-5.6,1644481200.46875
-9.11,1644481200.484375
-12.72,1644481200.5
-16.66,1644481200.515625
-21.17,1644481200.53125
-26.39,1644481200.546875
-32.39,1644481200.5625
-39.18,1644481200.578125
-46.58,1644481200.59375
-54.17,1644481200.609375
-61.19,1644481200.625
-66.67,1644481200.640625
-69.62,1644481200.65625
-69.37,1644481200.671875
-65.86,1644481200.6875
-59.65,1644481200.703125
-51.73,1644481200.71875
-43.22,1644481200.734375
-35.1,1644481200.75
-27.98,1644481200.765625
-22.13,1644481200.78125
-17.45,1644481200.796875
-13.69,1644481200.8125
-10.45,1644481200.828125
-7.35,1644481200.84375
-4.08,1644481200.859375
-0.56,1644481200.875
3.09,1644481200.890625
6.58,1644481200.90625
9.62,1644481200.921875
11.99,1644481200.9375
13.75,1644481200.953125
15.1,1644481200.96875
16.35,1644481200.984375
17.73,1644481201.0
19.38,1644481201.015625
21.31,1644481201.03125
23.44,1644481201.046875
25.67,1644481201.0625
27.92,1644481201.078125
30.06,1644481201.09375
31.96,1644481201.109375
33.4,1644481201.125
34.21,1644481201.140625
34.28,1644481201.15625
33.64,1644481201.171875
32.49,1644481201.1875
31.12,1644481201.203125
29.82,1644481201.21875
28.74,1644481201.234375
27.89,1644481201.25
27.13,1644481201.265625
26.27,1644481201.28125
25.12,1644481201.296875
23.51,1644481201.3125
21.34,1644481201.328125
18.57,1644481201.34375
15.34,1644481201.359375
11.9,1644481201.375
8.64,1644481201.390625
5.88,1644481201.40625
3.77,1644481201.421875
2.21,1644481201.4375
0.84,1644481201.453125
-0.75,1644481201.46875
-2.84,1644481201.484375
-5.47,1644481201.5
-8.44,1644481201.515625
-11.45,1644481201.53125
-14.24,1644481201.546875
-16.71,1644481201.5625
-19.0,1644481201.578125
-21.37,1644481201.59375
-24.19,1644481201.609375
-27.75,1644481201.625
-32.18,1644481201.640625
-37.29,1644481201.65625
-42.56,1644481201.671875
-47.17,1644481201.6875
-50.18,1644481201.703125
-50.82,1644481201.71875
-48.71,1644481201.734375
-43.95,1644481201.75
-37.16,1644481201.765625
-29.19,1644481201.78125
-20.96,1644481201.796875
-13.18,1644481201.8125
-6.33,1644481201.828125
-0.54,1644481201.84375
4.28,1644481201.859375
8.38,1644481201.875
12.07,1644481201.890625
15.6,1644481201.90625
19.05,1644481201.921875
22.35,1644481201.9375
25.32,1644481201.953125
27.77,1644481201.96875
29.63,1644481201.984375
31.02,1644481202.0
32.11,1644481202.015625
33.11,1644481202.03125
34.03,1644481202.046875
34.76,1644481202.0625
35.07,1644481202.078125
34.8,1644481202.09375
33.93,1644481202.109375
32.66,1644481202.125
31.27,1644481202.140625
30.02,1644481202.15625
29.07,1644481202.171875
28.39,1644481202.1875
27.87,1644481202.203125
27.38,1644481202.21875
26.8,1644481202.234375
26.09,1644481202.25
25.28,1644481202.265625
24.4,1644481202.28125
23.44,1644481202.296875
22.36,1644481202.3125
21.06,1644481202.328125
19.44,1644481202.34375
17.46,1644481202.359375
15.14,1644481202.375
12.68,1644481202.390625
10.33,1644481202.40625
8.3,1644481202.421875
6.63,1644481202.4375
5.07,1644481202.453125
3.26,1644481202.46875
0.85,1644481202.484375
-2.28,1644481202.5
-5.89,1644481202.515625
-9.55,1644481202.53125
-12.82,1644481202.546875
-15.51,1644481202.5625
-17.72,1644481202.578125
-19.71,1644481202.59375
-21.7,1644481202.609375
-23.77,1644481202.625
-25.88,1644481202.640625
-28.06,1644481202.65625
-30.46,1644481202.671875
-33.28,1644481202.6875
-36.53,1644481202.703125
-39.78,1644481202.71875
-42.21,1644481202.734375
-42.91,1644481202.75
-41.2,1644481202.765625
-37.01,1644481202.78125
-30.87,1644481202.796875
-23.71,1644481202.8125
-16.47,1644481202.828125
-9.94,1644481202.84375
-4.5,1644481202.859375
-0.23,1644481202.875
3.03,1644481202.890625
5.63,1644481202.90625
7.99,1644481202.921875
10.48,1644481202.9375
13.34,1644481202.953125
16.51,1644481202.96875
19.71,1644481202.984375
22.57,1644481203.0
24.75,1644481203.015625
26.14,1644481203.03125
26.83,1644481203.046875
27.03,1644481203.0625
26.96,1644481203.078125
26.85,1644481203.09375
26.83,1644481203.109375
27.0,1644481203.125
27.37,1644481203.140625
27.8,1644481203.15625
28.06,1644481203.171875
27.86,1644481203.1875
26.96,1644481203.203125
25.34,1644481203.21875
23.2,1644481203.234375
20.89,1644481203.25
18.8,1644481203.265625
17.13,1644481203.28125
15.82,1644481203.296875
14.63,1644481203.3125
13.27,1644481203.328125
11.62,1644481203.34375
9.75,1644481203.359375
7.87,1644481203.375
6.17,1644481203.390625
4.63,1644481203.40625
3.07,1644481203.421875
1.18,1644481203.4375
-1.21,1644481203.453125
-4.12,1644481203.46875
-7.31,1644481203.484375
-10.44,1644481203.5
-13.23,1644481203.515625
-15.64,1644481203.53125
-17.92,1644481203.546875
-20.43,1644481203.5625
-23.59,1644481203.578125
-27.6,1644481203.59375
-32.43,1644481203.609375
-37.78,1644481203.625
-43.17,1644481203.640625
-47.97,1644481203.65625
-51.55,1644481203.671875
-53.29,1644481203.6875
-52.73,1644481203.703125
-49.64,1644481203.71875
-44.21,1644481203.734375
-37.03,1644481203.75
-29.07,1644481203.765625
-21.37,1644481203.78125
-14.81,1644481203.796875
-9.73,1644481203.8125
-5.97,1644481203.828125
-3.02,1644481203.84375
-0.3,1644481203.859375
2.58,1644481203.875
5.61,1644481203.890625
8.63,1644481203.90625
11.33,1644481203.921875
13.55,1644481203.9375
15.22,1644481203.953125
16.41,1644481203.96875
17.16,1644481203.984375
17.57,1644481204.0
17.77,1644481204.015625
17.95,1644481204.03125
18.3,1644481204.046875
18.91,1644481204.0625
19.74,1644481204.078125
20.57,1644481204.09375
21.13,1644481204.109375
21.28,1644481204.125
21.01,1644481204.140625
20.49,1644481204.15625
19.94,1644481204.171875
19.52,1644481204.1875
19.27,1644481204.203125
19.11,1644481204.21875
18.93,1644481204.234375
18.57,1644481204.25
17.96,1644481204.265625
17.06,1644481204.28125
15.91,1644481204.296875
14.62,1644481204.3125
13.32,1644481204.328125
12.07,1644481204.34375
10.81,1644481204.359375
9.42,1644481204.375
7.73,1644481204.390625
5.59,1644481204.40625
2.99,1644481204.421875
-0.01,1644481204.4375
-3.2,1644481204.453125
-6.4,1644481204.46875
-9.46,1644481204.484375
-12.35,1644481204.5
-15.12,1644481204.515625
-17.92,1644481204.53125
-20.92,1644481204.546875
-24.28,1644481204.5625
-28.17,1644481204.578125
-32.68,1644481204.59375
-37.75,1644481204.609375
-42.95,1644481204.625
-47.54,1644481204.640625
-50.49,1644481204.65625
-50.88,1644481204.671875
-48.23,1644481204.6875
-42.69,1644481204.703125
-35.12,1644481204.71875
-26.7,1644481204.734375
-18.57,1644481204.75
-11.52,1644481204.765625
-5.86,1644481204.78125
-1.52,1644481204.796875
1.74,1644481204.8125
4.27,1644481204.828125
6.39,1644481204.84375
8.41,1644481204.859375
10.61,1644481204.875
13.19,1644481204.890625
16.12,1644481204.90625
19.17,1644481204.921875
21.97,1644481204.9375
24.18,1644481204.953125
25.61,1644481204.96875
26.29,1644481204.984375
26.44,1644481205.0
26.39,1644481205.015625
26.37,1644481205.03125
26.53,1644481205.046875
26.85,1644481205.0625
27.24,1644481205.078125
27.55,1644481205.09375
27.62,1644481205.109375
27.35,1644481205.125
26.67,1644481205.140625
25.6,1644481205.15625
24.22,1644481205.171875
22.68,1644481205.1875
21.18,1644481205.203125
19.94,1644481205.21875
19.09,1644481205.234375
18.6,1644481205.25
18.34,1644481205.265625
18.01,1644481205.28125
17.3,1644481205.296875
16.02,1644481205.3125
14.21,1644481205.328125
12.1,1644481205.34375
10.01,1644481205.359375
8.23,1644481205.375
6.88,1644481205.390625
5.86,1644481205.40625
4.93,1644481205.421875
3.83,1644481205.4375
2.35,1644481205.453125
0.42,1644481205.46875
-1.95,1644481205.484375
-4.64,1644481205.5
-7.52,1644481205.515625
-10.45,1644481205.53125
-13.27,1644481205.546875
-15.93,1644481205.5625
-18.49,1644481205.578125
-21.15,1644481205.59375
-24.28,1644481205.609375
-28.28,1644481205.625
-33.37,1644481205.640625
-39.36,1644481205.65625
-45.56,1644481205.671875
-50.89,1644481205.6875
-54.11,1644481205.703125
-54.33,1644481205.71875
-51.22,1644481205.734375
-45.26,1644481205.75
-37.47,1644481205.765625
-29.17,1644481205.78125
-21.5,1644481205.796875
-15.2,1644481205.8125
-10.43,1644481205.828125
-6.96,1644481205.84375
-4.25,1644481205.859375
-1.74,1644481205.875
0.95,1644481205.890625
3.99,1644481205.90625
7.26,1644481205.921875
10.53,1644481205.9375
13.5,1644481205.953125
16.01,1644481205.96875
17.93,1644481205.984375
19.25,1644481206.0
19.97,1644481206.015625
20.11,1644481206.03125
19.82,1644481206.046875
19.34,1644481206.0625
19.01,1644481206.078125
19.13,1644481206.09375
19.76,1644481206.109375
20.68,1644481206.125
21.43,1644481206.140625
21.52,1644481206.15625
20.67,1644481206.171875
18.89,1644481206.1875
16.51,1644481206.203125
13.91,1644481206.21875
11.46,1644481206.234375
9.35,1644481206.25
7.63,1644481206.265625
6.28,1644481206.28125
5.25,1644481206.296875
4.43,1644481206.3125
3.71,1644481206.328125
2.91,1644481206.34375
1.95,1644481206.359375
0.82,1644481206.375
-0.37,1644481206.390625
-1.45,1644481206.40625
-2.3,1644481206.421875
-2.92,1644481206.4375
-3.42,1644481206.453125
-3.99,1644481206.46875
-4.79,1644481206.484375
-5.91,1644481206.5
-7.38,1644481206.515625
-9.15,1644481206.53125
-11.11,1644481206.546875
-13.13,1644481206.5625
-15.05,1644481206.578125
-16.77,1644481206.59375
-18.35,1644481206.609375
-19.97,1644481206.625
-21.99,1644481206.640625
-24.66,1644481206.65625
-28.04,1644481206.671875
-31.79,1644481206.6875
-35.19,1644481206.703125
-37.34,1644481206.71875
-37.44,1644481206.734375
-35.11,1644481206.75
-30.56,1644481206.765625
-24.54,1644481206.78125
-18.05,1644481206.796875
-12.04,1644481206.8125
-7.05,1644481206.828125
-3.2,1644481206.84375
-0.32,1644481206.859375
1.93,1644481206.875
3.83,1644481206.890625
5.54,1644481206.90625
7.18,1644481206.921875
8.81,1644481206.9375
10.45,1644481206.953125
12.04,1644481206.96875
13.45,1644481206.984375
14.53,1644481207.0
15.26,1644481207.015625
15.66,1644481207.03125
15.96,1644481207.046875
16.35,1644481207.0625
16.88,1644481207.078125
17.5,1644481207.09375
18.0,1644481207.109375
18.21,1644481207.125
18.0,1644481207.140625
17.41,1644481207.15625
16.52,1644481207.171875
15.43,1644481207.1875
14.25,1644481207.203125
13.1,1644481207.21875
12.04,1644481207.234375
11.09,1644481207.25
10.16,1644481207.265625
9.05,1644481207.28125
7.64,1644481207.296875
5.89,1644481207.3125
4.07,1644481207.328125
2.58,1644481207.34375
1.83,1644481207.359375
1.93,1644481207.375
2.61,1644481207.390625
3.3,1644481207.40625
3.36,1644481207.421875
2.42,1644481207.4375
0.49,1644481207.453125
-2.06,1644481207.46875
-4.75,1644481207.484375
-7.26,1644481207.5
-9.54,1644481207.515625
-11.79,1644481207.53125
-14.27,1644481207.546875
-17.18,1644481207.5625
-20.57,1644481207.578125
-24.37,1644481207.59375
-28.42,1644481207.609375
-32.45,1644481207.625
-36.05,1644481207.640625
-38.64,1644481207.65625
-39.63,1644481207.671875
-38.57,1644481207.6875
-35.4,1644481207.703125
-30.55,1644481207.71875
-24.79,1644481207.734375
-19.02,1644481207.75
-13.94,1644481207.765625
-9.94,1644481207.78125
-6.99,1644481207.796875
-4.88,1644481207.8125
-3.27,1644481207.828125
-1.89,1644481207.84375
-0.61,1644481207.859375
0.61,1644481207.875
1.78,1644481207.890625
2.85,1644481207.90625
3.82,1644481207.921875
4.7,1644481207.9375
5.56,1644481207.953125
6.45,1644481207.96875
7.39,1644481207.984375
8.38,1644481208.0
9.41,1644481208.015625
10.5,1644481208.03125
11.67,1644481208.046875
12.92,1644481208.0625
14.16,1644481208.078125
15.21,1644481208.09375
15.84,1644481208.109375
15.91,1644481208.125
15.45,1644481208.140625
14.68,1644481208.15625
13.9,1644481208.171875
13.33,1644481208.1875
12.99,1644481208.203125
12.73,1644481208.21875
12.35,1644481208.234375
11.65,1644481208.25
10.62,1644481208.265625
9.36,1644481208.28125
8.02,1644481208.296875
6.71,1644481208.3125
5.47,1644481208.328125
4.27,1644481208.34375
3.06,1644481208.359375
1.9,1644481208.375
0.94,1644481208.390625
0.45,1644481208.40625
0.64,1644481208.421875
1.64,1644481208.4375
3.47,1644481208.453125
6.02,1644481208.46875
9.11,1644481208.484375
12.47,1644481208.5
15.76,1644481208.515625
18.61,1644481208.53125
20.66,1644481208.546875
21.61,1644481208.5625
21.32,1644481208.578125
19.82,1644481208.59375
17.31,1644481208.609375
14.09,1644481208.625
10.45,1644481208.640625
6.56,1644481208.65625
2.4,1644481208.671875
-2.14,1644481208.6875
-7.08,1644481208.703125
-12.16,1644481208.71875
-16.82,1644481208.734375
-20.38,1644481208.75
-22.34,1644481208.765625
-22.67,1644481208.78125
-21.88,1644481208.796875
-20.86,1644481208.8125
-20.43,1644481208.828125
-20.96,1644481208.84375
-22.24,1644481208.859375
-23.66,1644481208.875
-24.57,1644481208.890625
-24.64,1644481208.90625
-23.86,1644481208.921875
-22.53,1644481208.9375
-20.91,1644481208.953125
-19.12,1644481208.96875
-17.16,1644481208.984375
-14.98,1644481209.0
-12.7,1644481209.015625
-10.56,1644481209.03125
-8.79,1644481209.046875
-7.5,1644481209.0625
-6.56,1644481209.078125
-5.69,1644481209.09375
-4.58,1644481209.109375
-3.13,1644481209.125
-1.47,1644481209.140625
0.07,1644481209.15625
1.16,1644481209.171875
1.63,1644481209.1875
1.56,1644481209.203125
1.22,1644481209.21875
0.92,1644481209.234375
0.84,1644481209.25
0.98,1644481209.265625
1.13,1644481209.28125
1.01,1644481209.296875
0.36,1644481209.3125
-0.97,1644481209.328125
-2.99,1644481209.34375
-5.53,1644481209.359375
-8.33,1644481209.375
-11.01,1644481209.390625
-13.35,1644481209.40625
-15.22,1644481209.421875
-16.76,1644481209.4375
-18.33,1644481209.453125
-20.44,1644481209.46875
-23.51,1644481209.484375
-27.6,1644481209.5
-32.3,1644481209.515625
-36.7,1644481209.53125
-39.61,1644481209.546875
-40.01,1644481209.5625
-37.42,1644481209.578125
-32.11,1644481209.59375
-24.99,1644481209.609375
-17.33,1644481209.625
-10.3,1644481209.640625
-4.64,1644481209.65625
-0.51,1644481209.671875
2.35,1644481209.6875
4.44,1644481209.703125
6.24,1644481209.71875
8.1,1644481209.734375
10.18,1644481209.75
12.51,1644481209.765625
14.98,1644481209.78125
17.45,1644481209.796875
19.77,1644481209.8125
21.85,1644481209.828125
23.73,1644481209.84375
25.52,1644481209.859375
27.39,1644481209.875
29.45,1644481209.890625
31.69,1644481209.90625
33.94,1644481209.921875
35.96,1644481209.9375
37.54,1644481209.953125
38.6,1644481209.96875
39.2,1644481209.984375
39.54,1644481210.0
39.86,1644481210.015625
40.32,1644481210.03125
40.95,1644481210.046875
41.67,1644481210.0625
42.37,1644481210.078125
43.0,1644481210.09375
43.57,1644481210.109375
44.18,1644481210.125
44.85,1644481210.140625
45.59,1644481210.15625
46.46,1644481210.171875
47.63,1644481210.1875
49.56,1644481210.203125
52.73,1644481210.21875
57.32,1644481210.234375
62.8,1644481210.25
67.7,1644481210.265625
69.99,1644481210.28125
67.7,1644481210.296875
59.78,1644481210.3125
46.5,1644481210.328125
29.31,1644481210.34375
10.19,1644481210.359375
-9.06,1644481210.375
-27.26,1644481210.390625
-43.8,1644481210.40625
-58.22,1644481210.421875
-69.98,1644481210.4375
-78.5,1644481210.453125
-83.49,1644481210.46875
-85.34,1644481210.484375
-85.14,1644481210.5
-84.27,1644481210.515625
-83.8,1644481210.53125
-84.01,1644481210.546875
-84.31,1644481210.5625
-83.6,1644481210.578125
-80.9,1644481210.59375
-75.84,1644481210.609375
-68.75,1644481210.625
-60.54,1644481210.640625
-52.19,1644481210.65625
-44.4,1644481210.671875
-37.36,1644481210.6875
-30.87,1644481210.703125
-24.48,1644481210.71875
-17.81,1644481210.734375
-10.76,1644481210.75
-3.54,1644481210.765625
3.41,1644481210.78125
9.61,1644481210.796875
14.73,1644481210.8125
18.73,1644481210.828125
21.91,1644481210.84375
24.75,1644481210.859375
27.71,1644481210.875
30.97,1644481210.890625
34.39,1644481210.90625
37.51,1644481210.921875
39.85,1644481210.9375
41.08,1644481210.953125
41.15,1644481210.96875
40.28,1644481210.984375
38.71,1644481211.0
36.59,1644481211.015625
33.94,1644481211.03125
30.73,1644481211.046875
27.08,1644481211.0625
23.22,1644481211.078125
19.5,1644481211.09375
16.26,1644481211.109375
13.66,1644481211.125
11.72,1644481211.140625
10.37,1644481211.15625
9.48,1644481211.171875
8.87,1644481211.1875
8.22,1644481211.203125
7.11,1644481211.21875
5.12,1644481211.234375
1.93,1644481211.25
-2.48,1644481211.265625
-7.75,1644481211.28125
-13.29,1644481211.296875
-18.43,1644481211.3125
-22.72,1644481211.328125
-26.01,1644481211.34375
-28.47,1644481211.359375
-30.52,1644481211.375
-32.6,1644481211.390625
-34.97,1644481211.40625
-37.56,1644481211.421875
-39.96,1644481211.4375
-41.47,1644481211.453125
-41.38,1644481211.46875
-39.26,1644481211.484375
-35.15,1644481211.5
-29.7,1644481211.515625
-23.88,1644481211.53125
-18.8,1644481211.546875
-15.22,1644481211.5625
-13.42,1644481211.578125
-13.15,1644481211.59375
-13.85,1644481211.609375
-14.84,1644481211.625
-15.6,1644481211.640625
-15.82,1644481211.65625
-15.36,1644481211.671875
-14.17,1644481211.6875
-12.23,1644481211.703125
-9.56,1644481211.71875
-6.26,1644481211.734375
-2.55,1644481211.75
1.2,1644481211.765625
4.58,1644481211.78125
7.24,1644481211.796875
9.0,1644481211.8125
9.85,1644481211.828125
9.98,1644481211.84375
9.65,1644481211.859375
9.11,1644481211.875
8.6,1644481211.890625
8.28,1644481211.90625
8.27,1644481211.921875
8.61,1644481211.9375
9.2,1644481211.953125
9.8,1644481211.96875
10.0,1644481211.984375
9.38,1644481212.0
7.64,1644481212.015625
4.83,1644481212.03125
1.31,1644481212.046875
-2.19,1644481212.0625
-4.93,1644481212.078125
-6.3,1644481212.09375
-6.1,1644481212.109375
-4.66,1644481212.125
-2.66,1644481212.140625
-0.95,1644481212.15625
-0.13,1644481212.171875
-0.38,1644481212.1875
-1.41,1644481212.203125
-2.66,1644481212.21875
-3.66,1644481212.234375
-4.21,1644481212.25
-4.52,1644481212.265625
-5.04,1644481212.28125
-6.18,1644481212.296875
-8.23,1644481212.3125
-11.21,1644481212.328125
-14.97,1644481212.34375
-19.3,1644481212.359375
-23.95,1644481212.375
-28.6,1644481212.390625
-32.81,1644481212.40625
-36.01,1644481212.421875
-37.68,1644481212.4375
-37.46,1644481212.453125
-35.27,1644481212.46875
-31.41,1644481212.484375
-26.33,1644481212.5
-20.58,1644481212.515625
-14.61,1644481212.53125
-8.77,1644481212.546875
-3.27,1644481212.5625
1.82,1644481212.578125
6.54,1644481212.59375
11.01,1644481212.609375
15.39,1644481212.625
19.77,1644481212.640625
24.12,1644481212.65625
28.2,1644481212.671875
31.69,1644481212.6875
34.29,1644481212.703125
35.87,1644481212.71875
36.47,1644481212.734375
36.27,1644481212.75
35.48,1644481212.765625
34.31,1644481212.78125
33.06,1644481212.796875
32.04,1644481212.8125
31.62,1644481212.828125
32.03,1644481212.84375
33.25,1644481212.859375
34.88,1644481212.875
36.24,1644481212.890625
36.62,1644481212.90625
35.6,1644481212.921875
33.18,1644481212.9375
29.77,1644481212.953125
25.96,1644481212.96875
22.25,1644481212.984375
18.87,1644481213.0
15.73,1644481213.015625
12.58,1644481213.03125
9.19,1644481213.046875
5.43,1644481213.0625
1.39,1644481213.078125
-2.75,1644481213.09375
-6.69,1644481213.109375
-10.13,1644481213.125
-12.84,1644481213.140625
-14.68,1644481213.15625
-15.68,1644481213.171875
-16.03,1644481213.1875
-16.05,1644481213.203125
-16.05,1644481213.21875
-16.29,1644481213.234375
-16.82,1644481213.25
-17.6,1644481213.265625
-18.54,1644481213.28125
-19.68,1644481213.296875
-21.16,1644481213.3125
-23.23,1644481213.328125
-26.08,1644481213.34375
-29.75,1644481213.359375
-34.03,1644481213.375
-38.46,1644481213.390625
-42.41,1644481213.40625
-45.23,1644481213.421875
-46.34,1644481213.4375
-45.37,1644481213.453125
-42.25,1644481213.46875
-37.3,1644481213.484375
-31.11,1644481213.5
-24.46,1644481213.515625
-18.13,1644481213.53125
-12.69,1644481213.546875
-8.33,1644481213.5625
-4.87,1644481213.578125
-1.84,1644481213.59375
1.22,1644481213.609375
4.59,1644481213.625
8.23,1644481213.640625
11.83,1644481213.65625
15.04,1644481213.671875
17.61,1644481213.6875
19.52,1644481213.703125
20.98,1644481213.71875
22.22,1644481213.734375
23.4,1644481213.75
24.52,1644481213.765625
25.55,1644481213.78125
26.51,1644481213.796875
27.55,1644481213.8125
28.83,1644481213.828125
30.36,1644481213.84375
31.89,1644481213.859375
32.95,1644481213.875
33.01,1644481213.890625
31.86,1644481213.90625
29.68,1644481213.921875
27.01,1644481213.9375
24.48,1644481213.953125
22.55,1644481213.96875
21.31,1644481213.984375
20.55,1644481214.0
19.95,1644481214.015625
19.26,1644481214.03125
18.38,1644481214.046875
17.31,1644481214.0625
16.07,1644481214.078125
14.65,1644481214.09375
12.97,1644481214.109375
10.99,1644481214.125
8.68,1644481214.140625
6.09,1644481214.15625
3.26,1644481214.171875
0.28,1644481214.1875
-2.74,1644481214.203125
-5.65,1644481214.21875
-8.33,1644481214.234375
-10.7,1644481214.25
-12.81,1644481214.265625
-14.84,1644481214.28125
-17.11,1644481214.296875
-19.93,1644481214.3125
-23.57,1644481214.328125
-28.11,1644481214.34375
-33.31,1644481214.359375
-38.61,1644481214.375
-43.19,1644481214.390625
-46.2,1644481214.40625
-47.04,1644481214.421875
-45.58,1644481214.4375
-42.18,1644481214.453125
-37.48,1644481214.46875
-32.16,1644481214.484375
-26.68,1644481214.5
-21.24,1644481214.515625
-15.84,1644481214.53125
-10.34,1644481214.546875
-4.57,1644481214.5625
1.62,1644481214.578125
8.26,1644481214.59375
15.11,1644481214.609375
21.6,1644481214.625
26.85,1644481214.640625
29.97,1644481214.65625
30.47,1644481214.671875
28.5,1644481214.6875
24.82,1644481214.703125
20.51,1644481214.71875
16.54,1644481214.734375
13.49,1644481214.75
11.46,1644481214.765625
10.35,1644481214.78125
10.04,1644481214.796875
10.53,1644481214.8125
11.77,1644481214.828125
13.62,1644481214.84375
15.64,1644481214.859375
17.24,1644481214.875
17.85,1644481214.890625
17.18,1644481214.90625
15.35,1644481214.921875
12.88,1644481214.9375
10.54,1644481214.953125
8.94,1644481214.96875
8.38,1644481214.984375
8.66,1644481215.0
9.33,1644481215.015625
9.88,1644481215.03125
10.11,1644481215.046875
10.18,1644481215.0625
10.48,1644481215.078125
11.43,1644481215.09375
13.14,1644481215.109375
15.38,1644481215.125
17.64,1644481215.140625
19.36,1644481215.15625
20.06,1644481215.171875
19.48,1644481215.1875
17.51,1644481215.203125
14.21,1644481215.21875
9.87,1644481215.234375
5.03,1644481215.25
0.47,1644481215.265625
-2.92,1644481215.28125
-4.32,1644481215.296875
-3.25,1644481215.3125
0.4,1644481215.328125
6.33,1644481215.34375
13.92,1644481215.359375
22.34,1644481215.375
30.7,1644481215.390625
38.12,1644481215.40625
44.15,1644481215.421875
48.93,1644481215.4375
53.31,1644481215.453125
58.49,1644481215.46875
65.24,1644481215.484375
73.27,1644481215.5
80.94,1644481215.515625
85.69,1644481215.53125
85.01,1644481215.546875
77.47,1644481215.5625
63.22,1644481215.578125
43.81,1644481215.59375
21.52,1644481215.609375
-1.42,1644481215.625
-23.13,1644481215.640625
-42.05,1644481215.65625
-56.7,1644481215.671875
-65.8,1644481215.6875
-68.58,1644481215.703125
-65.43,1644481215.71875
-58.11,1644481215.734375
-49.43,1644481215.75
-42.4,1644481215.765625
-39.26,1644481215.78125
-40.77,1644481215.796875
-46.19,1644481215.8125
-53.75,1644481215.828125
-61.39,1644481215.84375
-67.45,1644481215.859375
-71.02,1644481215.875
-71.93,1644481215.890625
-70.52,1644481215.90625
-67.29,1644481215.921875
-62.76,1644481215.9375
-57.31,1644481215.953125
-51.29,1644481215.96875
-45.06,1644481215.984375
-39.03,1644481216.0
-33.64,1644481216.015625
-29.19,1644481216.03125
-25.75,1644481216.046875
-23.19,1644481216.0625
-21.22,1644481216.078125
-19.56,1644481216.09375
-18.06,1644481216.109375
-16.72,1644481216.125
-15.65,1644481216.140625
-14.96,1644481216.15625
-14.74,1644481216.171875
-15.04,1644481216.1875
-15.84,1644481216.203125
-17.01,1644481216.21875
-18.34,1644481216.234375
-19.46,1644481216.25
-19.92,1644481216.265625
-19.33,1644481216.28125
-17.52,1644481216.296875
-14.55,1644481216.3125
-10.72,1644481216.328125
-6.45,1644481216.34375
-2.16,1644481216.359375
1.76,1644481216.375
5.09,1644481216.390625
7.73,1644481216.40625
9.79,1644481216.421875
11.58,1644481216.4375
13.47,1644481216.453125
15.83,1644481216.46875
18.78,1644481216.484375
22.18,1644481216.5
25.6,1644481216.515625
28.54,1644481216.53125
30.68,1644481216.546875
31.99,1644481216.5625
32.69,1644481216.578125
33.16,1644481216.59375
33.68,1644481216.609375
34.37,1644481216.625
35.13,1644481216.640625
35.79,1644481216.65625
36.19,1644481216.671875
36.28,1644481216.6875
36.08,1644481216.703125
35.68,1644481216.71875
35.12,1644481216.734375
34.4,1644481216.75
33.45,1644481216.765625
32.22,1644481216.78125
30.7,1644481216.796875
28.93,1644481216.8125
27.0,1644481216.828125
24.99,1644481216.84375
22.84,1644481216.859375
20.45,1644481216.875
17.62,1644481216.890625
14.23,1644481216.90625
10.36,1644481216.921875
6.34,1644481216.9375
2.67,1644481216.953125
-0.19,1644481216.96875
-2.02,1644481216.984375
-2.92,1644481217.0
-3.32,1644481217.015625
-3.77,1644481217.03125
-4.8,1644481217.046875
-6.73,1644481217.0625
-9.6,1644481217.078125
-13.13,1644481217.09375
-16.74,1644481217.109375
-19.73,1644481217.125
-21.51,1644481217.140625
-21.88,1644481217.15625
-21.18,1644481217.171875
-20.26,1644481217.1875
-20.11,1644481217.203125
-21.47,1644481217.21875
-24.37,1644481217.234375
-28.11,1644481217.25
-31.52,1644481217.265625
-33.44,1644481217.28125
-33.26,1644481217.296875
-31.07,1644481217.3125
-27.54,1644481217.328125
-23.52,1644481217.34375
-19.66,1644481217.359375
-16.25,1644481217.375
-13.22,1644481217.390625
-10.36,1644481217.40625
-7.42,1644481217.421875
-4.25,1644481217.4375
-0.82,1644481217.453125
2.88,1644481217.46875
6.75,1644481217.484375
10.64,1644481217.5
14.39,1644481217.515625
17.83,1644481217.53125
20.86,1644481217.546875
23.48,1644481217.5625
25.7,1644481217.578125
27.52,1644481217.59375
28.93,1644481217.609375
29.88,1644481217.625
30.41,1644481217.640625
30.65,1644481217.65625
30.74,1644481217.671875
30.73,1644481217.6875
30.53,1644481217.703125
29.86,1644481217.71875
28.43,1644481217.734375
26.15,1644481217.75
23.23,1644481217.765625
20.11,1644481217.78125
17.29,1644481217.796875
15.09,1644481217.8125
13.52,1644481217.828125
12.32,1644481217.84375
11.19,1644481217.859375
9.97,1644481217.875
8.73,1644481217.890625
7.71,1644481217.90625
7.17,1644481217.921875
7.21,1644481217.9375
7.74,1644481217.953125
8.44,1644481217.96875
8.93,1644481217.984375
8.81,1644481218.0
7.74,1644481218.015625
5.54,1644481218.03125
2.25,1644481218.046875
-1.87,1644481218.0625
-6.35,1644481218.078125
-10.61,1644481218.09375
-14.17,1644481218.109375
-16.84,1644481218.125
-18.7,1644481218.140625
-20.08,1644481218.15625
-21.34,1644481218.171875
-22.74,1644481218.1875
-24.33,1644481218.203125
-26.02,1644481218.21875
-27.6,1644481218.234375
-28.85,1644481218.25
-29.57,1644481218.265625
-29.56,1644481218.28125
-28.62,1644481218.296875
-26.64,1644481218.3125
-23.65,1644481218.328125
-19.94,1644481218.34375
-15.98,1644481218.359375
-12.37,1644481218.375
-9.58,1644481218.390625
-7.77,1644481218.40625
-6.73,1644481218.421875
-6.02,1644481218.4375
-5.1,1644481218.453125
-3.71,1644481218.46875
-1.83,1644481218.484375
0.26,1644481218.5
2.25,1644481218.515625
3.97,1644481218.53125
5.41,1644481218.546875
6.69,1644481218.5625
7.87,1644481218.578125
8.93,1644481218.59375
9.8,1644481218.609375
10.45,1644481218.625
11.01,1644481218.640625
11.69,1644481218.65625
12.67,1644481218.671875
13.92,1644481218.6875
15.18,1644481218.703125
16.02,1644481218.71875
16.12,1644481218.734375
15.39,1644481218.75
14.06,1644481218.765625
12.55,1644481218.78125
11.27,1644481218.796875
10.44,1644481218.8125
10.05,1644481218.828125
9.83,1644481218.84375
9.49,1644481218.859375
8.77,1644481218.875
7.6,1644481218.890625
6.04,1644481218.90625
4.32,1644481218.921875
2.63,1644481218.9375
1.11,1644481218.953125
-0.25,1644481218.96875
-1.57,1644481218.984375
-3.05,1644481219.0
-4.83,1644481219.015625
-6.91,1644481219.03125
-9.14,1644481219.046875
-11.33,1644481219.0625
-13.35,1644481219.078125
-15.29,1644481219.09375
-17.45,1644481219.109375
-20.27,1644481219.125
-24.04,1644481219.140625
-28.77,1644481219.15625
-34.01,1644481219.171875
-38.92,1644481219.1875
-42.54,1644481219.203125
-43.97,1644481219.21875
-42.77,1644481219.234375
-39.02,1644481219.25
-33.33,1644481219.265625
-26.68,1644481219.28125
-20.07,1644481219.296875
-14.23,1644481219.3125
-9.41,1644481219.328125
-5.45,1644481219.34375
-1.93,1644481219.359375
1.54,1644481219.375
5.08,1644481219.390625
8.52,1644481219.40625
11.51,1644481219.421875
13.76,1644481219.4375
15.11,1644481219.453125
15.65,1644481219.46875
15.61,1644481219.484375
15.27,1644481219.5
14.9,1644481219.515625
14.75,1644481219.53125
15.02,1644481219.546875
15.84,1644481219.5625
17.22,1644481219.578125
19.11,1644481219.59375
21.35,1644481219.609375
23.76,1644481219.625
26.07,1644481219.640625
27.97,1644481219.65625
29.12,1644481219.671875
29.28,1644481219.6875
28.43,1644481219.703125
26.94,1644481219.71875
25.46,1644481219.734375
24.72,1644481219.75
25.24,1644481219.765625
27.07,1644481219.78125
29.73,1644481219.796875
32.45,1644481219.8125
34.43,1644481219.828125
35.19,1644481219.84375
34.68,1644481219.859375
33.3,1644481219.875
31.79,1644481219.890625
30.87,1644481219.90625
30.97,1644481219.921875
31.97,1644481219.9375
33.22,1644481219.953125
33.79,1644481219.96875
33.0,1644481219.984375
30.82,1644481220.0
28.03,1644481220.015625
25.91,1644481220.03125
25.7,1644481220.046875
27.99,1644481220.0625
32.41,1644481220.078125
37.82,1644481220.09375
42.65,1644481220.109375
45.31,1644481220.125
44.47,1644481220.140625
39.18,1644481220.15625
29.16,1644481220.171875
14.99,1644481220.1875
-1.7,1644481220.203125
-18.51,1644481220.21875
-33.01,1644481220.234375
-43.71,1644481220.25
-50.74,1644481220.265625
-55.67,1644481220.28125
-60.59,1644481220.296875
-66.76,1644481220.3125
-73.78,1644481220.328125
-79.78,1644481220.34375
-82.46,1644481220.359375
-80.5,1644481220.375
-74.29,1644481220.390625
-65.68,1644481220.40625
-56.96,1644481220.421875
-49.69,1644481220.4375
-44.07,1644481220.453125
-39.24,1644481220.46875
-34.06,1644481220.484375
-28.01,1644481220.5
-21.43,1644481220.515625
-15.32,1644481220.53125
-10.66,1644481220.546875
-7.81,1644481220.5625
-6.45,1644481220.578125
-5.71,1644481220.59375
-4.74,1644481220.609375
-3.11,1644481220.625
-0.91,1644481220.640625
1.29,1644481220.65625
2.88,1644481220.671875
3.48,1644481220.6875
3.17,1644481220.703125
2.46,1644481220.71875
2.03,1644481220.734375
2.48,1644481220.75
4.02,1644481220.765625
6.37,1644481220.78125
8.86,1644481220.796875
10.76,1644481220.8125
11.52,1644481220.828125
11.08,1644481220.84375
9.86,1644481220.859375
8.48,1644481220.875
7.5,1644481220.890625
7.17,1644481220.90625
7.33,1644481220.921875
7.59,1644481220.9375
7.55,1644481220.953125
7.01,1644481220.96875
6.02,1644481220.984375
4.72,1644481221.0
3.2,1644481221.015625
1.41,1644481221.03125
-0.78,1644481221.046875
-3.46,1644481221.0625
-6.59,1644481221.078125
-10.02,1644481221.09375
-13.55,1644481221.109375
-17.09,1644481221.125
-20.7,1644481221.140625
-24.43,1644481221.15625
-28.26,1644481221.171875
-31.87,1644481221.1875
-34.71,1644481221.203125
-36.17,1644481221.21875
-35.76,1644481221.234375
-33.37,1644481221.25
-29.36,1644481221.265625
-24.39,1644481221.28125
-19.23,1644481221.296875
-14.52,1644481221.3125
-10.6,1644481221.328125
-7.51,1644481221.34375
-5.01,1644481221.359375
-2.86,1644481221.375
-0.84,1644481221.390625
1.14,1644481221.40625
3.06,1644481221.421875
4.96,1644481221.4375
6.88,1644481221.453125
8.91,1644481221.46875
11.13,1644481221.484375
13.49,1644481221.5
15.86,1644481221.515625
18.0,1644481221.53125
19.66,1644481221.546875
20.7,1644481221.5625
21.08,1644481221.578125
20.94,1644481221.59375
20.45,1644481221.609375
19.84,1644481221.625
19.3,1644481221.640625
18.99,1644481221.65625
18.98,1644481221.671875
19.25,1644481221.6875
19.68,1644481221.703125
20.06,1644481221.71875
20.19,1644481221.734375
19.9,1644481221.75
19.13,1644481221.765625
17.89,1644481221.78125
16.24,1644481221.796875
14.31,1644481221.8125
12.24,1644481221.828125
10.14,1644481221.84375
8.1,1644481221.859375
6.13,1644481221.875
4.11,1644481221.890625
1.87,1644481221.90625
-0.76,1644481221.921875
-3.8,1644481221.9375
-7.08,1644481221.953125
-10.29,1644481221.96875
-13.09,1644481221.984375
-15.35,1644481222.0
-17.19,1644481222.015625
-19.01,1644481222.03125
-21.27,1644481222.046875
-24.32,1644481222.0625
-28.19,1644481222.078125
-32.52,1644481222.09375
-36.64,1644481222.109375
-39.75,1644481222.125
-41.11,1644481222.140625
-40.29,1644481222.15625
-37.29,1644481222.171875
-32.53,1644481222.1875
-26.73,1644481222.203125
-20.71,1644481222.21875
-15.16,1644481222.234375
-10.46,1644481222.25
-6.69,1644481222.265625
-3.61,1644481222.28125
-0.84,1644481222.296875
2.0,1644481222.3125
5.13,1644481222.328125
8.55,1644481222.34375
12.04,1644481222.359375
15.27,1644481222.375
17.91,1644481222.390625
19.75,1644481222.40625
20.83,1644481222.421875
21.32,1644481222.4375
21.53,1644481222.453125
21.71,1644481222.46875
22.03,1644481222.484375
22.49,1644481222.5
23.01,1644481222.515625
23.41,1644481222.53125
23.55,1644481222.546875
23.32,1644481222.5625
22.69,1644481222.578125
21.62,1644481222.59375
20.12,1644481222.609375
18.25,1644481222.625
16.09,1644481222.640625
13.92,1644481222.65625
12.08,1644481222.671875
10.86,1644481222.6875
10.35,1644481222.703125
10.36,1644481222.71875
10.4,1644481222.734375
9.95,1644481222.75
8.66,1644481222.765625
6.54,1644481222.78125
4.02,1644481222.796875
1.73,1644481222.8125
0.26,1644481222.828125
-0.12,1644481222.84375
0.37,1644481222.859375
1.16,1644481222.875
1.48,1644481222.890625
0.74,1644481222.90625
-1.16,1644481222.921875
-3.73,1644481222.9375
-6.01,1644481222.953125
-6.93,1644481222.96875
-5.71,1644481222.984375
-2.13,1644481223.0
3.44,1644481223.015625
10.19,1644481223.03125
17.25,1644481223.046875
23.97,1644481223.0625
30.05,1644481223.078125
35.55,1644481223.09375
40.77,1644481223.109375
46.05,1644481223.125
51.69,1644481223.140625
57.8,1644481223.15625
64.21,1644481223.171875
70.31,1644481223.1875
75.05,1644481223.203125
77.08,1644481223.21875
75.06,1644481223.234375
68.26,1644481223.25
56.89,1644481223.265625
42.24,1644481223.28125
26.41,1644481223.296875
11.63,1644481223.3125
-0.33,1644481223.328125
-8.6,1644481223.34375
-13.29,1644481223.359375
-15.14,1644481223.375
-15.15,1644481223.390625
-14.14,1644481223.40625
-12.74,1644481223.421875
-11.38,1644481223.4375
-10.35,1644481223.453125
-9.88,1644481223.46875
-10.07,1644481223.484375
-10.84,1644481223.5
-11.95,1644481223.515625
-13.11,1644481223.53125
-14.2,1644481223.546875
-15.35,1644481223.5625
-17.02,1644481223.578125
-19.75,1644481223.59375
-24.03,1644481223.609375
-29.96,1644481223.625
-37.19,1644481223.640625
-45.1,1644481223.65625
-52.93,1644481223.671875
-60.08,1644481223.6875
-66.17,1644481223.703125
-70.98,1644481223.71875
-74.28,1644481223.734375
-75.73,1644481223.75
-74.96,1644481223.765625
-71.76,1644481223.78125
-66.32,1644481223.796875
-59.23,1644481223.8125
-51.39,1644481223.828125
-43.57,1644481223.84375
-36.24,1644481223.859375
-29.4,1644481223.875
-22.76,1644481223.890625
-16.09,1644481223.90625
-9.43,1644481223.921875
-3.23,1644481223.9375
1.78,1644481223.953125
4.93,1644481223.96875
5.92,1644481223.984375
5.05,1644481224.0
3.08,1644481224.015625
1.09,1644481224.03125
0.04,1644481224.046875
0.45,1644481224.0625
2.31,1644481224.078125
5.15,1644481224.09375
8.36,1644481224.109375
11.45,1644481224.125
14.23,1644481224.140625
16.76,1644481224.15625
19.15,1644481224.171875
21.34,1644481224.1875
23.11,1644481224.203125
24.18,1644481224.21875
24.42,1644481224.234375
23.98,1644481224.25
23.23,1644481224.265625
22.53,1644481224.28125
22.08,1644481224.296875
21.8,1644481224.3125
21.45,1644481224.328125
20.76,1644481224.34375
19.51,1644481224.359375
17.68,1644481224.375
15.35,1644481224.390625
12.73,1644481224.40625
10.19,1644481224.421875
8.22,1644481224.4375
7.36,1644481224.453125
8.01,1644481224.46875
10.26,1644481224.484375
13.86,1644481224.5
18.13,1644481224.515625
22.14,1644481224.53125
24.86,1644481224.546875
25.38,1644481224.5625
23.07,1644481224.578125
17.76,1644481224.59375
9.91,1644481224.609375
0.47,1644481224.625
-9.26,1644481224.640625
-18.12,1644481224.65625
-25.43,1644481224.671875
-31.15,1644481224.6875
-35.86,1644481224.703125
-40.34,1644481224.71875
-45.11,1644481224.734375
-50.12,1644481224.75
-54.66,1644481224.765625
-57.6,1644481224.78125
-57.88,1644481224.796875
-54.94,1644481224.8125
-49.01,1644481224.828125
-41.0,1644481224.84375
-32.14,1644481224.859375
-23.52,1644481224.875
-15.74,1644481224.890625
-8.89,1644481224.90625
-2.79,1644481224.921875
2.75,1644481224.9375
7.62,1644481224.953125
11.6,1644481224.96875
14.48,1644481224.984375
16.37,1644481225.0
17.69,1644481225.015625
19.02,1644481225.03125
20.81,1644481225.046875
23.11,1644481225.0625
25.55,1644481225.078125
27.58,1644481225.09375
28.7,1644481225.109375
28.74,1644481225.125
27.85,1644481225.140625
26.41,1644481225.15625
24.82,1644481225.171875
23.39,1644481225.1875
22.27,1644481225.203125
21.48,1644481225.21875
20.98,1644481225.234375
20.67,1644481225.25
20.38,1644481225.265625
19.94,1644481225.28125
19.16,1644481225.296875
17.93,1644481225.3125
16.3,1644481225.328125
14.43,1644481225.34375
12.59,1644481225.359375
10.97,1644481225.375
9.69,1644481225.390625
8.64,1644481225.40625
7.59,1644481225.421875
6.27,1644481225.4375
4.48,1644481225.453125
2.12,1644481225.46875
-0.75,1644481225.484375
-4.01,1644481225.5
-7.54,1644481225.515625
-11.23,1644481225.53125
-15.04,1644481225.546875
-18.92,1644481225.5625
-22.84,1644481225.578125
-26.77,1644481225.59375
-30.71,1644481225.609375
-34.71,1644481225.625
-38.8,1644481225.640625
-42.91,1644481225.65625
-46.75,1644481225.671875
-49.79,1644481225.6875
-51.4,1644481225.703125
-50.98,1644481225.71875
-48.27,1644481225.734375
-43.44,1644481225.75
-37.11,1644481225.765625
-30.16,1644481225.78125
-23.47,1644481225.796875
-17.71,1644481225.8125
-13.11,1644481225.828125
-9.52,1644481225.84375
-6.51,1644481225.859375
-3.6,1644481225.875
-0.48,1644481225.890625
2.9,1644481225.90625
6.33,1644481225.921875
9.51,1644481225.9375
12.23,1644481225.953125
14.43,1644481225.96875
16.17,1644481225.984375
17.58,1644481226.0
18.75,1644481226.015625
19.74,1644481226.03125
20.66,1644481226.046875
21.65,1644481226.0625
22.89,1644481226.078125
24.44,1644481226.09375
26.12,1644481226.109375
27.58,1644481226.125
28.44,1644481226.140625
28.49,1644481226.15625
27.86,1644481226.171875
26.94,1644481226.1875
26.19,1644481226.203125
25.92,1644481226.21875
26.14,1644481226.234375
26.61,1644481226.25
26.95,1644481226.265625
26.87,1644481226.28125
26.21,1644481226.296875
25.01,1644481226.3125
23.44,1644481226.328125
21.65,1644481226.34375
19.79,1644481226.359375
17.93,1644481226.375
16.09,1644481226.390625
14.27,1644481226.40625
12.56,1644481226.421875
11.02,1644481226.4375
9.68,1644481226.453125
8.48,1644481226.46875
7.18,1644481226.484375
5.56,1644481226.5
3.44,1644481226.515625
0.89,1644481226.53125
-1.83,1644481226.546875
-4.38,1644481226.5625
-6.49,1644481226.578125
-8.16,1644481226.59375
-9.57,1644481226.609375
-11.05,1644481226.625
-12.88,1644481226.640625
-15.27,1644481226.65625
-18.38,1644481226.671875
-22.31,1644481226.6875
-27.09,1644481226.703125
-32.49,1644481226.71875
-37.93,1644481226.734375
-42.47,1644481226.75
-45.08,1644481226.765625
-45.05,1644481226.78125
-42.27,1644481226.796875
-37.37,1644481226.8125
-31.44,1644481226.828125
-25.67,1644481226.84375
-20.83,1644481226.859375
-17.14,1644481226.875
-14.28,1644481226.890625
-11.73,1644481226.90625
-9.01,1644481226.921875
-5.96,1644481226.9375
-2.61,1644481226.953125
0.86,1644481226.96875
4.27,1644481226.984375
7.5,1644481227.0
10.48,1644481227.015625
13.15,1644481227.03125
15.41,1644481227.046875
17.24,1644481227.0625
18.71,1644481227.078125
20.0,1644481227.09375
21.37,1644481227.109375
22.98,1644481227.125
24.82,1644481227.140625
26.69,1644481227.15625
28.21,1644481227.171875
29.05,1644481227.1875
29.05,1644481227.203125
28.28,1644481227.21875
26.97,1644481227.234375
25.41,1644481227.25
23.85,1644481227.265625
22.38,1644481227.28125
20.97,1644481227.296875
19.54,1644481227.3125
18.04,1644481227.328125
16.45,1644481227.34375
14.88,1644481227.359375
13.51,1644481227.375
12.51,1644481227.390625
12.03,1644481227.40625
12.05,1644481227.421875
12.46,1644481227.4375
13.05,1644481227.453125
13.58,1644481227.46875
13.91,1644481227.484375
13.94,1644481227.5
13.63,1644481227.515625
12.95,1644481227.53125
11.79,1644481227.546875
10.0,1644481227.5625
7.54,1644481227.578125
4.54,1644481227.59375
1.29,1644481227.609375
-1.81,1644481227.625
-4.5,1644481227.640625
-6.73,1644481227.65625
-8.74,1644481227.671875
-10.92,1644481227.6875
-13.64,1644481227.703125
-17.06,1644481227.71875
-21.12,1644481227.734375
-25.53,1644481227.75
-29.86,1644481227.765625
-33.64,1644481227.78125
-36.38,1644481227.796875
-37.62,1644481227.8125
-37.01,1644481227.828125
-34.33,1644481227.84375
-29.73,1644481227.859375
-23.64,1644481227.875
-16.77,1644481227.890625
-9.95,1644481227.90625
-3.9,1644481227.921875
0.9,1644481227.9375
4.27,1644481227.953125
6.37,1644481227.96875
7.51,1644481227.984375
8.13,1644481228.0
8.64,1644481228.015625
9.36,1644481228.03125
10.38,1644481228.046875
11.65,1644481228.0625
12.89,1644481228.078125
13.79,1644481228.09375
14.04,1644481228.109375
13.59,1644481228.125
12.57,1644481228.140625
11.33,1644481228.15625
10.23,1644481228.171875
9.48,1644481228.1875
9.11,1644481228.203125
8.99,1644481228.21875
8.91,1644481228.234375
8.81,1644481228.25
8.78,1644481228.265625
8.97,1644481228.28125
9.6,1644481228.296875
10.65,1644481228.3125
11.83,1644481228.328125
12.65,1644481228.34375
12.55,1644481228.359375
11.19,1644481228.375
8.6,1644481228.390625
5.25,1644481228.40625
1.93,1644481228.421875
-0.56,1644481228.4375
-1.63,1644481228.453125
-1.11,1644481228.46875
0.77,1644481228.484375
3.56,1644481228.5
6.8,1644481228.515625
10.19,1644481228.53125
13.6,1644481228.546875
17.0,1644481228.5625
20.45,1644481228.578125
23.99,1644481228.59375
27.74,1644481228.609375
31.78,1644481228.625
36.02,1644481228.640625
40.0,1644481228.65625
42.8,1644481228.671875
43.17,1644481228.6875
39.96,1644481228.703125
32.59,1644481228.71875
21.47,1644481228.734375
7.9,1644481228.75
-6.23,1644481228.765625
-19.16,1644481228.78125
-29.65,1644481228.796875
-37.27,1644481228.8125
-42.18,1644481228.828125
-44.86,1644481228.84375
-45.8,1644481228.859375
-45.39,1644481228.875
-43.99,1644481228.890625
-42.03,1644481228.90625
-40.02,1644481228.921875
-38.38,1644481228.9375
-37.28,1644481228.953125
-36.56,1644481228.96875
-35.73,1644481228.984375
-34.23,1644481229.0
-31.65,1644481229.015625
-28.0,1644481229.03125
-23.64,1644481229.046875
-19.14,1644481229.0625
-15.06,1644481229.078125
-11.69,1644481229.09375
-9.02,1644481229.109375
-6.81,1644481229.125
-4.82,1644481229.140625
-2.92,1644481229.15625
-1.18,1644481229.171875
0.27,1644481229.1875
1.29,1644481229.203125
1.92,1644481229.21875
2.35,1644481229.234375
2.83,1644481229.25
3.59,1644481229.265625
4.72,1644481229.28125
6.11,1644481229.296875
7.45,1644481229.3125
8.39,1644481229.328125
8.6,1644481229.34375
7.99,1644481229.359375
6.68,1644481229.375
5.04,1644481229.390625
3.45,1644481229.40625
2.16,1644481229.421875
1.15,1644481229.4375
0.13,1644481229.453125
-1.26,1644481229.46875
-3.24,1644481229.484375
-5.75,1644481229.5
-8.48,1644481229.515625
-11.03,1644481229.53125
-13.16,1644481229.546875
-14.88,1644481229.5625
-16.49,1644481229.578125
-18.41,1644481229.59375
-21.01,1644481229.609375
-24.44,1644481229.625
-28.54,1644481229.640625
-32.79,1644481229.65625
-36.39,1644481229.671875
-38.48,1644481229.6875
-38.39,1644481229.703125
-35.95,1644481229.71875
-31.52,1644481229.734375
-25.96,1644481229.75
-20.24,1644481229.765625
-15.08,1644481229.78125
-10.76,1644481229.796875
-7.13,1644481229.8125
-3.89,1644481229.828125
-0.85,1644481229.84375
1.96,1644481229.859375
4.29,1644481229.875
5.84,1644481229.890625
6.49,1644481229.90625
6.34,1644481229.921875
5.68,1644481229.9375
4.89,1644481229.953125
4.26,1644481229.96875
3.97,1644481229.984375
4.05,1644481230.0
4.35,1644481230.015625
4.69,1644481230.03125
4.85,1644481230.046875
4.6,1644481230.0625
3.83,1644481230.078125
2.59,1644481230.09375
1.13,1644481230.109375
-0.13,1644481230.125
-0.67,1644481230.140625
-0.12,1644481230.15625
1.6,1644481230.171875
4.11,1644481230.1875
6.71,1644481230.203125
8.65,1644481230.21875
9.45,1644481230.234375
9.1,1644481230.25
8.02,1644481230.265625
6.82,1644481230.28125
6.0,1644481230.296875
5.77,1644481230.3125
6.07,1644481230.328125
6.65,1644481230.34375
7.2,1644481230.359375
7.47,1644481230.375
7.26,1644481230.390625
6.47,1644481230.40625
5.18,1644481230.421875
3.62,1644481230.4375
2.03,1644481230.453125
0.52,1644481230.46875
-1.04,1644481230.484375
-3.11,1644481230.5
-6.23,1644481230.515625
-10.83,1644481230.53125
-16.94,1644481230.546875
-24.17,1644481230.5625
-31.77,1644481230.578125
-38.78,1644481230.59375
-44.24,1644481230.609375
-47.28,1644481230.625
-47.32,1644481230.640625
-44.16,1644481230.65625
-38.09,1644481230.671875
-29.95,1644481230.6875
-20.91,1644481230.703125
-12.23,1644481230.71875
-4.93,1644481230.734375
0.51,1644481230.75
4.17,1644481230.765625
6.58,1644481230.78125
8.51,1644481230.796875
10.58,1644481230.8125
13.16,1644481230.828125
16.24,1644481230.84375
19.55,1644481230.859375
22.68,1644481230.875
25.36,1644481230.890625
27.46,1644481230.90625
29.03,1644481230.921875
30.2,1644481230.9375
31.07,1644481230.953125
31.69,1644481230.96875
32.06,1644481230.984375
32.2,1644481231.0
32.13,1644481231.015625
31.88,1644481231.03125
31.43,1644481231.046875
